 20	 1930
 20	 1931
 20	 1932
 20	 1933
 21	 1930
 21	 1931
 21	 1932
 21	 1933
 22	 1930
 22	 1931
 22	 1932
 22	 1933
 23	 1930
 23	 1931
 23	 1932
 23	 1933
 24	 1930
 24	 1931
 24	 1932
 24	 1933
 25	 1930
 25	 1931
 25	 1932
 25	 1933
 26	 1876
 26	 1877
 26	 1878
 26	 1879
 26	 1880
 26	 1881
 26	 1882
 26	 1883
 26	 1884
 26	 1885
 26	 1886
 26	 1887
 26	 1888
 26	 1889
 26	 1890
 26	 1891
 26	 1892
 26	 1893
 26	 1894
 26	 1895
 26	 1896
 26	 1897
 26	 1898
 26	 1899
 26	 1900
 26	 1901
 26	 1902
 26	 1903
 26	 1904
 26	 1905
 26	 1906
 26	 1907
 26	 1908
 26	 1909
 26	 1910
 26	 1911
 26	 1912
 26	 1913
 26	 1914
 26	 1915
 26	 1916
 26	 1917
 26	 1918
 26	 1919
 26	 1920
 26	 1921
 26	 1922
 26	 1923
 26	 1924
 26	 1925
 26	 1926
 26	 1927
 26	 1928
 26	 1929
 26	 1930
 26	 1931
 26	 1932
 26	 1933
 27	 1776
 27	 1777
 27	 1778
 27	 1779
 27	 1780
 27	 1781
 27	 1782
 27	 1783
 27	 1784
 27	 1785
 27	 1786
 27	 1787
 27	 1788
 27	 1789
 27	 1790
 27	 1791
 27	 1792
 27	 1793
 27	 1794
 27	 1795
 27	 1796
 27	 1797
 27	 1798
 27	 1799
 27	 1800
 27	 1801
 27	 1802
 27	 1803
 27	 1804
 27	 1805
 27	 1806
 27	 1807
 27	 1808
 27	 1809
 27	 1810
 27	 1811
 27	 1812
 27	 1813
 27	 1814
 27	 1815
 27	 1816
 27	 1817
 27	 1818
 27	 1819
 27	 1820
 27	 1821
 27	 1822
 27	 1823
 27	 1824
 27	 1825
 27	 1826
 27	 1827
 27	 1828
 27	 1829
 27	 1830
 27	 1831
 27	 1832
 27	 1833
 27	 1834
 27	 1835
 27	 1836
 27	 1837
 27	 1838
 27	 1839
 27	 1840
 27	 1841
 27	 1842
 27	 1843
 27	 1844
 27	 1845
 27	 1846
 27	 1847
 27	 1848
 27	 1849
 27	 1850
 27	 1851
 27	 1852
 27	 1853
 27	 1854
 27	 1855
 27	 1856
 27	 1857
 27	 1858
 27	 1859
 27	 1860
 27	 1861
 27	 1862
 27	 1863
 27	 1864
 27	 1865
 27	 1866
 27	 1867
 27	 1868
 27	 1869
 27	 1870
 27	 1871
 27	 1872
 27	 1873
 27	 1874
 27	 1875
 27	 1876
 27	 1877
 27	 1878
 27	 1879
 27	 1880
 27	 1881
 27	 1882
 27	 1883
 27	 1884
 27	 1885
 27	 1886
 27	 1887
 27	 1888
 27	 1889
 27	 1890
 27	 1891
 27	 1892
 27	 1893
 27	 1894
 27	 1895
 27	 1896
 27	 1897
 27	 1898
 27	 1899
 27	 1900
 27	 1901
 27	 1902
 27	 1903
 27	 1904
 27	 1905
 27	 1906
 27	 1907
 27	 1908
 27	 1909
 27	 1910
 27	 1911
 27	 1912
 27	 1913
 27	 1914
 27	 1915
 27	 1916
 27	 1917
 27	 1918
 27	 1919
 27	 1920
 27	 1921
 27	 1922
 27	 1923
 27	 1924
 27	 1925
 27	 1926
 27	 1927
 27	 1928
 27	 1929
 27	 1930
 27	 1931
 27	 1932
 27	 1933
 28	 1752
 28	 1753
 28	 1754
 28	 1755
 28	 1756
 28	 1757
 28	 1758
 28	 1759
 28	 1760
 28	 1761
 28	 1762
 28	 1763
 28	 1764
 28	 1765
 28	 1766
 28	 1767
 28	 1768
 28	 1769
 28	 1770
 28	 1771
 28	 1772
 28	 1773
 28	 1774
 28	 1775
 28	 1776
 28	 1777
 28	 1778
 28	 1779
 28	 1780
 28	 1781
 28	 1782
 28	 1783
 28	 1784
 28	 1785
 28	 1786
 28	 1787
 28	 1788
 28	 1789
 28	 1790
 28	 1791
 28	 1792
 28	 1793
 28	 1794
 28	 1795
 28	 1796
 28	 1797
 28	 1798
 28	 1799
 28	 1800
 28	 1801
 28	 1802
 28	 1803
 28	 1804
 28	 1805
 28	 1806
 28	 1807
 28	 1808
 28	 1809
 28	 1810
 28	 1811
 28	 1812
 28	 1813
 28	 1814
 28	 1815
 28	 1816
 28	 1817
 28	 1818
 28	 1819
 28	 1820
 28	 1821
 28	 1822
 28	 1823
 28	 1824
 28	 1825
 28	 1826
 28	 1827
 28	 1828
 28	 1829
 28	 1830
 28	 1831
 28	 1832
 28	 1833
 28	 1834
 28	 1835
 28	 1836
 28	 1837
 28	 1838
 28	 1839
 28	 1840
 28	 1841
 28	 1842
 28	 1843
 28	 1844
 28	 1845
 28	 1846
 28	 1847
 28	 1848
 28	 1849
 28	 1850
 28	 1851
 28	 1852
 28	 1853
 28	 1854
 28	 1855
 28	 1856
 28	 1857
 28	 1858
 28	 1859
 28	 1860
 28	 1861
 28	 1862
 28	 1863
 28	 1864
 28	 1865
 28	 1866
 28	 1867
 28	 1868
 28	 1869
 28	 1870
 28	 1871
 28	 1872
 28	 1873
 28	 1874
 28	 1875
 28	 1876
 28	 1877
 28	 1878
 28	 1879
 28	 1880
 28	 1881
 28	 1882
 28	 1883
 28	 1884
 28	 1885
 28	 1886
 28	 1887
 28	 1888
 28	 1889
 28	 1890
 28	 1891
 28	 1892
 28	 1893
 28	 1894
 28	 1895
 28	 1896
 28	 1897
 28	 1898
 28	 1899
 28	 1900
 28	 1901
 28	 1902
 28	 1903
 28	 1904
 28	 1905
 28	 1906
 28	 1907
 28	 1908
 28	 1909
 28	 1910
 28	 1911
 28	 1912
 28	 1913
 28	 1914
 28	 1915
 28	 1916
 28	 1917
 28	 1918
 28	 1919
 28	 1920
 28	 1921
 28	 1922
 28	 1923
 28	 1924
 28	 1925
 28	 1926
 28	 1927
 28	 1928
 28	 1929
 28	 1930
 28	 1931
 28	 1932
 28	 1933
 29	 1752
 29	 1753
 29	 1754
 29	 1755
 29	 1756
 29	 1757
 29	 1758
 29	 1759
 29	 1760
 29	 1761
 29	 1762
 29	 1763
 29	 1764
 29	 1765
 29	 1766
 29	 1767
 29	 1768
 29	 1769
 29	 1770
 29	 1771
 29	 1772
 29	 1773
 29	 1774
 29	 1775
 29	 1776
 29	 1777
 29	 1778
 29	 1779
 29	 1780
 29	 1781
 29	 1782
 29	 1783
 29	 1784
 29	 1785
 29	 1786
 29	 1787
 29	 1788
 29	 1789
 29	 1790
 29	 1791
 29	 1792
 29	 1793
 29	 1794
 29	 1795
 29	 1796
 29	 1797
 29	 1798
 29	 1799
 29	 1800
 29	 1801
 29	 1802
 29	 1803
 29	 1804
 29	 1805
 29	 1806
 29	 1807
 29	 1808
 29	 1809
 29	 1810
 29	 1811
 29	 1812
 29	 1813
 29	 1814
 29	 1815
 29	 1816
 29	 1817
 29	 1818
 29	 1819
 29	 1820
 29	 1821
 29	 1822
 29	 1823
 29	 1824
 29	 1825
 29	 1826
 29	 1827
 29	 1828
 29	 1829
 29	 1830
 29	 1831
 29	 1832
 29	 1833
 29	 1834
 29	 1835
 29	 1836
 29	 1837
 29	 1838
 29	 1839
 29	 1840
 29	 1841
 29	 1842
 29	 1843
 29	 1844
 29	 1845
 29	 1846
 29	 1847
 29	 1848
 29	 1849
 29	 1850
 29	 1851
 29	 1852
 29	 1853
 29	 1854
 29	 1855
 29	 1856
 29	 1857
 29	 1858
 29	 1859
 29	 1860
 29	 1861
 29	 1862
 29	 1863
 29	 1864
 29	 1865
 29	 1866
 29	 1867
 29	 1868
 29	 1869
 29	 1870
 29	 1871
 29	 1872
 29	 1873
 29	 1874
 29	 1875
 29	 1876
 29	 1877
 29	 1878
 29	 1879
 29	 1880
 29	 1881
 29	 1882
 29	 1883
 29	 1884
 29	 1885
 29	 1886
 29	 1887
 29	 1888
 29	 1889
 29	 1890
 29	 1891
 29	 1892
 29	 1893
 29	 1894
 29	 1895
 29	 1896
 29	 1897
 29	 1898
 29	 1899
 29	 1900
 29	 1901
 29	 1902
 29	 1903
 29	 1904
 29	 1905
 29	 1906
 29	 1907
 29	 1908
 29	 1909
 29	 1910
 29	 1911
 29	 1912
 29	 1913
 29	 1914
 29	 1915
 29	 1916
 29	 1917
 29	 1918
 29	 1919
 29	 1920
 29	 1921
 29	 1922
 29	 1923
 29	 1924
 29	 1925
 29	 1926
 29	 1927
 29	 1928
 29	 1929
 29	 1930
 29	 1931
 29	 1932
 29	 1933
 30	 1752
 30	 1753
 30	 1754
 30	 1755
 30	 1756
 30	 1757
 30	 1758
 30	 1759
 30	 1760
 30	 1761
 30	 1762
 30	 1763
 30	 1764
 30	 1765
 30	 1766
 30	 1767
 30	 1768
 30	 1769
 30	 1770
 30	 1771
 30	 1772
 30	 1773
 30	 1774
 30	 1775
 30	 1776
 30	 1777
 30	 1778
 30	 1779
 30	 1780
 30	 1781
 30	 1782
 30	 1783
 30	 1784
 30	 1785
 30	 1786
 30	 1787
 30	 1788
 30	 1789
 30	 1790
 30	 1791
 30	 1792
 30	 1793
 30	 1794
 30	 1795
 30	 1796
 30	 1797
 30	 1798
 30	 1799
 30	 1800
 30	 1801
 30	 1802
 30	 1803
 30	 1804
 30	 1805
 30	 1806
 30	 1807
 30	 1808
 30	 1809
 30	 1810
 30	 1811
 30	 1812
 30	 1813
 30	 1814
 30	 1815
 30	 1816
 30	 1817
 30	 1818
 30	 1819
 30	 1820
 30	 1821
 30	 1822
 30	 1823
 30	 1824
 30	 1825
 30	 1826
 30	 1827
 30	 1828
 30	 1829
 30	 1830
 30	 1831
 30	 1832
 30	 1833
 30	 1834
 30	 1835
 30	 1836
 30	 1837
 30	 1838
 30	 1839
 30	 1840
 30	 1841
 30	 1842
 30	 1843
 30	 1844
 30	 1845
 30	 1846
 30	 1847
 30	 1848
 30	 1849
 30	 1850
 30	 1851
 31	 1752
 31	 1753
 31	 1754
 31	 1755
 32	 1752
 32	 1753
 32	 1754
 32	 1755
 33	 1752
 33	 1753
 33	 1754
 33	 1755
 34	 1752
 34	 1753
 34	 1754
 34	 1755
 35	 1752
 35	 1753
 35	 1754
 35	 1755
 36	 1752
 36	 1753
 36	 1754
 36	 1755
 37	 1752
 37	 1753
 37	 1754
 37	 1755
 38	 1752
 38	 1753
 38	 1754
 38	 1755
 39	 1752
 39	 1753
 39	 1754
 39	 1755
 40	 1752
 40	 1753
 40	 1754
 40	 1755
 41	 1752
 41	 1753
 41	 1754
 41	 1755
 42	 1752
 42	 1753
 42	 1754
 42	 1755
 43	 1752
 43	 1753
 43	 1754
 43	 1755
 44	 1752
 44	 1753
 44	 1754
 44	 1755
 45	 1752
 45	 1753
 45	 1754
 45	 1755
 46	 1752
 46	 1753
 46	 1754
 46	 1755
 47	 1752
 47	 1753
 47	 1754
 47	 1755
 48	 1752
 48	 1753
 48	 1754
 48	 1755
 49	 1752
 49	 1753
 49	 1754
 49	 1755
 50	 1752
 50	 1753
 50	 1754
 50	 1755
 51	 1752
 51	 1753
 51	 1754
 51	 1755
 52	 1752
 52	 1753
 52	 1754
 52	 1755
 53	 1752
 53	 1753
 53	 1754
 53	 1755
 54	 1752
 54	 1753
 54	 1754
 54	 1755
 55	 1752
 55	 1753
 55	 1754
 55	 1755
 56	 1752
 56	 1753
 56	 1754
 56	 1755
 57	 1752
 57	 1753
 57	 1754
 57	 1755
 58	 1752
 58	 1753
 58	 1754
 58	 1755
 59	 1752
 59	 1753
 59	 1754
 59	 1755
 60	 1752
 60	 1753
 60	 1754
 60	 1755
 61	 1752
 61	 1753
 61	 1754
 61	 1755
 62	 1752
 62	 1753
 62	 1754
 62	 1755
 63	 1752
 63	 1753
 63	 1754
 63	 1755
 64	 1752
 64	 1753
 64	 1754
 64	 1755
 65	 1752
 65	 1753
 65	 1754
 65	 1755
 66	 1752
 66	 1753
 66	 1754
 66	 1755
 67	 1752
 67	 1753
 67	 1754
 67	 1755
 68	 1752
 68	 1753
 68	 1754
 68	 1755
 69	 1752
 69	 1753
 69	 1754
 69	 1755
 70	 1752
 70	 1753
 70	 1754
 70	 1755
 71	 1752
 71	 1753
 71	 1754
 71	 1755
 72	 1752
 72	 1753
 72	 1754
 72	 1755
 73	 1752
 73	 1753
 73	 1754
 73	 1755
 74	 1752
 74	 1753
 74	 1754
 74	 1755
 75	 1752
 75	 1753
 75	 1754
 75	 1755
 76	 1752
 76	 1753
 76	 1754
 76	 1755
 77	 1752
 77	 1753
 77	 1754
 77	 1755
 78	 1752
 78	 1753
 78	 1754
 78	 1755
 79	 1752
 79	 1753
 79	 1754
 79	 1755
 80	 1752
 80	 1753
 80	 1754
 80	 1755
 81	 1752
 81	 1753
 81	 1754
 81	 1755
 82	 1752
 82	 1753
 82	 1754
 82	 1755
 83	 1752
 83	 1753
 83	 1754
 83	 1755
 84	 1752
 84	 1753
 84	 1754
 84	 1755
 85	 1752
 85	 1753
 85	 1754
 85	 1755
 86	 1752
 86	 1753
 86	 1754
 86	 1755
 87	 1752
 87	 1753
 87	 1754
 87	 1755
 88	 1752
 88	 1753
 88	 1754
 88	 1755
 89	 1752
 89	 1753
 89	 1754
 89	 1755
 90	 1752
 90	 1753
 90	 1754
 90	 1755
 91	 1752
 91	 1753
 91	 1754
 91	 1755
 92	 1752
 92	 1753
 92	 1754
 92	 1755
 93	 1752
 93	 1753
 93	 1754
 93	 1755
 94	 1752
 94	 1753
 94	 1754
 94	 1755
 95	 1752
 95	 1753
 95	 1754
 95	 1755
 96	 1752
 96	 1753
 96	 1754
 96	 1755
 97	 1752
 97	 1753
 97	 1754
 97	 1755
 98	 1752
 98	 1753
 98	 1754
 98	 1755
 99	 1752
 99	 1753
 99	 1754
 99	 1755
 100	 1752
 100	 1753
 100	 1754
 100	 1755
 101	 1752
 101	 1753
 101	 1754
 101	 1755
 102	 1752
 102	 1753
 102	 1754
 102	 1755
 103	 1752
 103	 1753
 103	 1754
 103	 1755
 104	 1752
 104	 1753
 104	 1754
 104	 1755
 105	 1752
 105	 1753
 105	 1754
 105	 1755
 106	 1752
 106	 1753
 106	 1754
 106	 1755
 107	 1752
 107	 1753
 107	 1754
 107	 1755
 108	 1752
 108	 1753
 108	 1754
 108	 1755
 109	 1752
 109	 1753
 109	 1754
 109	 1755
 110	 1752
 110	 1753
 110	 1754
 110	 1755
 111	 1752
 111	 1753
 111	 1754
 111	 1755
 112	 1752
 112	 1753
 112	 1754
 112	 1755
 113	 1752
 113	 1753
 113	 1754
 113	 1755
 114	 1752
 114	 1753
 114	 1754
 114	 1755
 115	 1752
 115	 1753
 115	 1754
 115	 1755
 115	 1756
 115	 1757
 115	 1758
 115	 1759
 115	 1760
 115	 1761
 115	 1762
 115	 1763
 115	 1764
 115	 1765
 115	 1766
 115	 1767
 115	 1768
 115	 1769
 115	 1770
 115	 1771
 115	 1772
 115	 1773
 115	 1774
 115	 1775
 115	 1776
 115	 1777
 115	 1778
 115	 1779
 115	 1780
 115	 1781
 115	 1782
 115	 1783
 115	 1784
 115	 1785
 115	 1786
 115	 1787
 115	 1788
 115	 1789
 115	 1790
 115	 1791
 115	 1792
 115	 1793
 115	 1794
 115	 1795
 115	 1796
 115	 1797
 115	 1798
 115	 1799
 115	 1800
 115	 1801
 115	 1802
 115	 1803
 115	 1804
 115	 1805
 115	 1806
 115	 1807
 115	 1808
 115	 1809
 115	 1810
 115	 1811
 115	 1812
 115	 1813
 115	 1814
 115	 1815
 115	 1816
 115	 1817
 115	 1818
 115	 1819
 115	 1820
 115	 1821
 115	 1822
 115	 1823
 115	 1824
 115	 1825
 115	 1826
 115	 1827
 115	 1828
 115	 1829
 115	 1830
 115	 1831
 115	 1832
 115	 1833
 116	 1752
 116	 1753
 116	 1754
 116	 1755
 116	 1756
 116	 1757
 116	 1758
 116	 1759
 116	 1760
 116	 1761
 116	 1762
 116	 1763
 116	 1764
 116	 1765
 116	 1766
 116	 1767
 116	 1768
 116	 1769
 116	 1770
 116	 1771
 116	 1772
 116	 1773
 116	 1774
 116	 1775
 116	 1776
 116	 1777
 116	 1778
 116	 1779
 116	 1780
 116	 1781
 116	 1782
 116	 1783
 116	 1784
 116	 1785
 116	 1786
 116	 1787
 116	 1788
 116	 1789
 116	 1790
 116	 1791
 116	 1792
 116	 1793
 116	 1794
 116	 1795
 116	 1796
 116	 1797
 116	 1798
 116	 1799
 116	 1800
 116	 1801
 116	 1802
 116	 1803
 116	 1804
 116	 1805
 116	 1806
 116	 1807
 116	 1808
 116	 1809
 116	 1810
 116	 1811
 116	 1812
 116	 1813
 116	 1814
 116	 1815
 116	 1816
 116	 1817
 116	 1818
 116	 1819
 116	 1820
 116	 1821
 116	 1822
 116	 1823
 116	 1824
 116	 1825
 116	 1826
 116	 1827
 116	 1828
 116	 1829
 116	 1830
 116	 1831
 116	 1832
 116	 1833
 116	 1834
 116	 1835
 116	 1836
 116	 1837
 116	 1838
 116	 1839
 116	 1840
 116	 1841
 116	 1842
 116	 1843
 116	 1844
 116	 1845
 116	 1846
 116	 1847
 116	 1848
 116	 1849
 116	 1850
 116	 1851
 116	 1852
 116	 1853
 116	 1854
 116	 1855
 116	 1856
 116	 1857
 116	 1858
 116	 1859
 116	 1860
 116	 1861
 116	 1862
 116	 1863
 116	 1864
 116	 1865
 116	 1866
 116	 1867
 116	 1868
 116	 1869
 116	 1870
 116	 1871
 116	 1872
 116	 1873
 116	 1874
 116	 1875
 116	 1876
 116	 1877
 116	 1878
 116	 1879
 116	 1880
 116	 1881
 116	 1882
 116	 1883
 116	 1884
 116	 1885
 116	 1886
 116	 1887
 116	 1888
 116	 1889
 116	 1890
 116	 1891
 116	 1892
 116	 1893
 116	 1894
 116	 1895
 116	 1896
 116	 1897
 116	 1898
 116	 1899
 116	 1900
 116	 1901
 116	 1902
 116	 1903
 116	 1904
 116	 1905
 116	 1906
 116	 1907
 116	 1908
 116	 1909
 116	 1910
 116	 1911
 116	 1912
 116	 1913
 116	 1914
 116	 1915
 116	 1916
 116	 1917
 116	 1918
 116	 1919
 116	 1920
 116	 1921
 116	 1922
 116	 1923
 116	 1924
 116	 1925
 116	 1926
 116	 1927
 116	 1928
 116	 1929
 116	 1930
 116	 1931
 116	 1932
 116	 1933
 117	 1752
 117	 1753
 117	 1754
 117	 1755
 117	 1756
 117	 1757
 117	 1758
 117	 1759
 117	 1760
 117	 1761
 117	 1762
 117	 1763
 117	 1764
 117	 1765
 117	 1766
 117	 1767
 117	 1768
 117	 1769
 117	 1770
 117	 1771
 117	 1772
 117	 1773
 117	 1774
 117	 1775
 117	 1776
 117	 1777
 117	 1778
 117	 1779
 117	 1780
 117	 1781
 117	 1782
 117	 1783
 117	 1784
 117	 1785
 117	 1786
 117	 1787
 117	 1788
 117	 1789
 117	 1790
 117	 1791
 117	 1792
 117	 1793
 117	 1794
 117	 1795
 117	 1796
 117	 1797
 117	 1798
 117	 1799
 117	 1800
 117	 1801
 117	 1802
 117	 1803
 117	 1804
 117	 1805
 117	 1806
 117	 1807
 117	 1808
 117	 1809
 117	 1810
 117	 1811
 117	 1812
 117	 1813
 117	 1814
 117	 1815
 117	 1816
 117	 1817
 117	 1818
 117	 1819
 117	 1820
 117	 1821
 117	 1822
 117	 1823
 117	 1824
 117	 1825
 117	 1826
 117	 1827
 117	 1828
 117	 1829
 117	 1830
 117	 1831
 117	 1832
 117	 1833
 117	 1834
 117	 1835
 117	 1836
 117	 1837
 117	 1838
 117	 1839
 117	 1840
 117	 1841
 117	 1842
 117	 1843
 117	 1844
 117	 1845
 117	 1846
 117	 1847
 117	 1848
 117	 1849
 117	 1850
 117	 1851
 117	 1852
 117	 1853
 117	 1854
 117	 1855
 117	 1856
 117	 1857
 117	 1858
 117	 1859
 117	 1860
 117	 1861
 117	 1862
 117	 1863
 117	 1864
 117	 1865
 117	 1866
 117	 1867
 117	 1868
 117	 1869
 117	 1870
 117	 1871
 117	 1872
 117	 1873
 117	 1874
 117	 1875
 117	 1876
 117	 1877
 117	 1878
 117	 1879
 117	 1880
 117	 1881
 117	 1882
 117	 1883
 117	 1884
 117	 1885
 117	 1886
 117	 1887
 117	 1888
 117	 1889
 117	 1890
 117	 1891
 117	 1892
 117	 1893
 117	 1894
 117	 1895
 117	 1896
 117	 1897
 117	 1898
 117	 1899
 117	 1900
 117	 1901
 117	 1902
 117	 1903
 117	 1904
 117	 1905
 117	 1906
 117	 1907
 117	 1908
 117	 1909
 117	 1910
 117	 1911
 117	 1912
 117	 1913
 117	 1914
 117	 1915
 117	 1916
 117	 1917
 117	 1918
 117	 1919
 117	 1920
 117	 1921
 117	 1922
 117	 1923
 117	 1924
 117	 1925
 117	 1926
 117	 1927
 117	 1928
 117	 1929
 117	 1930
 117	 1931
 117	 1932
 117	 1933
 118	 1758
 118	 1759
 118	 1760
 118	 1761
 118	 1762
 118	 1763
 118	 1764
 118	 1765
 118	 1766
 118	 1767
 118	 1768
 118	 1769
 118	 1770
 118	 1771
 118	 1772
 118	 1773
 118	 1774
 118	 1775
 118	 1776
 118	 1777
 118	 1778
 118	 1779
 118	 1780
 118	 1781
 118	 1782
 118	 1783
 118	 1784
 118	 1785
 118	 1786
 118	 1787
 118	 1788
 118	 1789
 118	 1790
 118	 1791
 118	 1792
 118	 1793
 118	 1794
 118	 1795
 118	 1796
 118	 1797
 118	 1798
 118	 1799
 118	 1800
 118	 1801
 118	 1802
 118	 1803
 118	 1804
 118	 1805
 118	 1806
 118	 1807
 118	 1808
 118	 1809
 118	 1810
 118	 1811
 118	 1812
 118	 1813
 118	 1814
 118	 1815
 118	 1816
 118	 1817
 118	 1818
 118	 1819
 118	 1820
 118	 1821
 118	 1822
 118	 1823
 118	 1824
 118	 1825
 118	 1826
 118	 1827
 118	 1828
 118	 1829
 118	 1830
 118	 1831
 118	 1832
 118	 1833
 118	 1834
 118	 1835
 118	 1836
 118	 1837
 118	 1838
 118	 1839
 118	 1840
 118	 1841
 118	 1842
 118	 1843
 118	 1844
 118	 1845
 118	 1846
 118	 1847
 118	 1848
 118	 1849
 118	 1850
 118	 1851
 118	 1852
 118	 1853
 118	 1854
 118	 1855
 118	 1856
 118	 1857
 118	 1858
 118	 1859
 118	 1860
 118	 1861
 118	 1862
 118	 1863
 118	 1864
 118	 1865
 118	 1866
 118	 1867
 118	 1868
 118	 1869
 118	 1870
 118	 1871
 118	 1872
 118	 1873
 118	 1874
 118	 1875
 118	 1876
 118	 1877
 118	 1878
 118	 1879
 118	 1880
 118	 1881
 118	 1882
 118	 1883
 118	 1884
 118	 1885
 118	 1886
 118	 1887
 118	 1888
 118	 1889
 118	 1890
 118	 1891
 118	 1892
 118	 1893
 118	 1894
 118	 1895
 118	 1896
 118	 1897
 118	 1898
 118	 1899
 118	 1900
 118	 1901
 118	 1902
 118	 1903
 118	 1904
 118	 1905
 118	 1906
 118	 1907
 118	 1908
 118	 1909
 118	 1910
 118	 1911
 118	 1912
 118	 1913
 118	 1914
 118	 1915
 118	 1916
 118	 1917
 118	 1918
 118	 1919
 118	 1920
 118	 1921
 118	 1922
 118	 1923
 118	 1924
 118	 1925
 118	 1926
 118	 1927
 118	 1928
 118	 1929
 118	 1930
 118	 1931
 118	 1932
 118	 1933
 119	 1858
 119	 1859
 119	 1860
 119	 1861
 119	 1862
 119	 1863
 119	 1864
 119	 1865
 119	 1866
 119	 1867
 119	 1868
 119	 1869
 119	 1870
 119	 1871
 119	 1872
 119	 1873
 119	 1874
 119	 1875
 119	 1876
 119	 1877
 119	 1878
 119	 1879
 119	 1880
 119	 1881
 119	 1882
 119	 1883
 119	 1884
 119	 1885
 119	 1886
 119	 1887
 119	 1888
 119	 1889
 119	 1890
 119	 1891
 119	 1892
 119	 1893
 119	 1894
 119	 1895
 119	 1896
 119	 1897
 119	 1898
 119	 1899
 119	 1900
 119	 1901
 119	 1902
 119	 1903
 119	 1904
 119	 1905
 119	 1906
 119	 1907
 119	 1908
 119	 1909
 119	 1910
 119	 1911
 119	 1912
 119	 1913
 119	 1914
 119	 1915
 119	 1916
 119	 1917
 119	 1918
 119	 1919
 119	 1920
 119	 1921
 119	 1922
 119	 1923
 119	 1924
 119	 1925
 119	 1926
 119	 1927
 119	 1928
 119	 1929
 119	 1930
 119	 1931
 119	 1932
 119	 1933
 120	 1929
 120	 1930
 120	 1931
 120	 1932
 120	 1933
 121	 1929
 121	 1930
 121	 1931
 121	 1932
 121	 1933
 122	 1930
 122	 1931
 122	 1932
 122	 1933
 123	 1930
 123	 1931
 123	 1932
 123	 1933
 124	 1930
 124	 1931
 124	 1932
 124	 1933
 125	 1930
 125	 1931
 125	 1932
 125	 1933
 126	 1930
 126	 1931
 127	 1930
 127	 1931
 128	 1930
 128	 1931
 129	 1930
 129	 1931
 130	 1929
 130	 1930
 130	 1931
 131	 1928
 131	 1929
 131	 1930
 132	 1928
 132	 1929
 132	 1930
 132	 1932
 132	 1933
 132	 1934
 133	 1928
 133	 1929
 133	 1932
 133	 1933
 133	 1934
 134	 1928
 134	 1929
 134	 1931
 134	 1932
 134	 1933
 134	 1934
 135	 1928
 135	 1929
 135	 1930
 135	 1931
 135	 1932
 135	 1933
 135	 1934
 136	 1928
 136	 1929
 136	 1930
 136	 1931
 136	 1932
 136	 1933
 136	 1934
 137	 1928
 137	 1929
 137	 1930
 137	 1931
 137	 1932
 137	 1933
 138	 1928
 138	 1929
 138	 1930
 138	 1931
 138	 1932
 139	 1928
 139	 1929
 139	 1930
 139	 1931
 139	 1932
 139	 1933
 139	 1934
 139	 1935
 139	 1936
 139	 1937
 140	 1928
 140	 1929
 140	 1930
 140	 1931
 140	 1932
 140	 1933
 140	 1934
 140	 1935
 140	 1936
 140	 1937
 141	 1928
 141	 1929
 141	 1930
 141	 1931
 141	 1932
 141	 1933
 141	 1934
 141	 1935
 142	 1928
 142	 1929
 142	 1930
 142	 1931
 142	 1932
 142	 1933
 142	 1934
 142	 1935
 142	 1936
 142	 1937
 143	 1927
 143	 1928
 143	 1929
 143	 1930
 143	 1931
 143	 1932
 143	 1933
 143	 1934
 143	 1935
 143	 1936
 143	 1937
 143	 1938
 144	 1928
 144	 1929
 144	 1930
 144	 1932
 144	 1933
 144	 1934
 144	 1935
 144	 1936
 144	 1937
 144	 1938
 144	 1939
 145	 1933
 145	 1934
 145	 1935
 145	 1936
 145	 1937
 145	 1938
 145	 1939
 146	 1933
 146	 1934
 146	 1935
 146	 1936
 146	 1937
 146	 1938
 147	 1933
 147	 1934
 147	 1935
 147	 1936
 147	 1937
 147	 1938
 147	 1939
 148	 1934
 148	 1935
 148	 1936
 148	 1937
 148	 1938
 148	 1939
 148	 1940
 148	 1941
 148	 1942
 149	 1935
 149	 1936
 149	 1937
 149	 1938
 149	 1939
 149	 1940
 149	 1941
 149	 1942
 149	 1943
 150	 1937
 150	 1938
 150	 1939
 150	 1940
 150	 1941
 150	 1942
 150	 1943
 150	 1944
 150	 1945
 151	 1939
 151	 1940
 151	 1941
 151	 1942
 151	 1943
 151	 1944
 151	 1945
 151	 1946
 152	 1941
 152	 1942
 152	 1943
 152	 1944
 152	 1945
 152	 1946
 152	 1947
 153	 1942
 153	 1943
 153	 1944
 153	 1945
 153	 1946
 153	 1947
 153	 1948
 153	 1949
 154	 1942
 154	 1943
 154	 1944
 154	 1945
 154	 1946
 154	 1947
 154	 1948
 154	 1949
 155	 1943
 155	 1944
 155	 1945
 155	 1946
 155	 1947
 155	 1948
 156	 1944
 156	 1945
 156	 1946
 156	 1947
 157	 1944
 157	 1945
 157	 1946
 157	 1947
 158	 1943
 158	 1944
 158	 1945
 158	 1946
 158	 1947
 159	 1943
 159	 1944
 159	 1945
 159	 1946
 159	 1947
 159	 1948
 160	 1944
 160	 1945
 160	 1946
 160	 1947
 160	 1948
 160	 1949
 161	 1942
 161	 1943
 161	 1944
 161	 1945
 161	 1946
 161	 1947
 161	 1948
 161	 1949
 162	 1942
 162	 1943
 162	 1944
 162	 1945
 162	 1946
 162	 1947
 162	 1948
 163	 1944
 163	 1945
 163	 1946
 163	 1947
 163	 1948
 164	 1944
 164	 1945
 164	 1946
 164	 1947
 164	 1948
 165	 1942
 165	 1943
 165	 1944
 165	 1945
 165	 1946
 165	 1947
 165	 1948
 166	 1940
 166	 1941
 166	 1942
 166	 1943
 166	 1944
 166	 1945
 166	 1946
 166	 1947
 167	 1939
 167	 1940
 167	 1941
 167	 1942
 167	 1943
 167	 1944
 167	 1945
 167	 1946
 168	 1932
 168	 1933
 168	 1934
 168	 1935
 168	 1936
 168	 1937
 168	 1938
 168	 1939
 168	 1940
 168	 1941
 168	 1942
 168	 1943
 168	 1944
 168	 1945
 168	 1946
 169	 1927
 169	 1928
 169	 1929
 169	 1930
 169	 1931
 169	 1932
 169	 1933
 169	 1934
 169	 1935
 169	 1936
 169	 1937
 169	 1938
 169	 1939
 169	 1940
 169	 1941
 169	 1942
 169	 1943
 169	 1944
 169	 1945
 170	 1927
 170	 1928
 170	 1929
 170	 1930
 170	 1931
 170	 1932
 170	 1933
 170	 1934
 170	 1935
 170	 1936
 170	 1937
 170	 1938
 170	 1939
 170	 1940
 170	 1941
 170	 1942
 170	 1943
 170	 1944
 170	 1945
 170	 1946
 170	 1947
 170	 1948
 170	 1949
 170	 1950
 170	 1951
 170	 1952
 170	 1953
 170	 1954
 170	 1955
 170	 1956
 170	 1957
 170	 1958
 170	 1959
 170	 1960
 171	 1927
 171	 1928
 171	 1929
 171	 1930
 171	 1931
 171	 1932
 171	 1933
 171	 1934
 171	 1935
 171	 1936
 171	 1937
 171	 1938
 171	 1939
 171	 1940
 171	 1941
 171	 1942
 171	 1943
 171	 1944
 171	 1945
 171	 1946
 171	 1947
 171	 1948
 171	 1949
 171	 1950
 171	 1951
 171	 1952
 171	 1953
 171	 1954
 171	 1955
 171	 1956
 171	 1957
 171	 1958
 171	 1959
 171	 1960
 171	 1961
 171	 1962
 171	 1963
 171	 1964
 171	 1965
 171	 1966
 171	 1967
 171	 1968
 171	 1969
 172	 1927
 172	 1928
 172	 1929
 172	 1930
 172	 1931
 172	 1932
 172	 1933
 172	 1934
 172	 1935
 172	 1936
 172	 1937
 172	 1938
 172	 1939
 172	 1940
 172	 1941
 172	 1942
 172	 1943
 172	 1944
 172	 1945
 172	 1946
 172	 1947
 172	 1948
 172	 1949
 172	 1950
 172	 1951
 172	 1952
 172	 1953
 172	 1954
 172	 1955
 172	 1956
 172	 1957
 172	 1958
 172	 1959
 172	 1960
 172	 1961
 172	 1962
 172	 1963
 172	 1964
 172	 1965
 172	 1966
 172	 1967
 172	 1968
 173	 1936
 173	 1937
 173	 1938
 173	 1939
 173	 1940
 173	 1941
 173	 1942
 173	 1943
 173	 1944
 173	 1945
 173	 1946
 173	 1947
 173	 1948
 173	 1949
 173	 1950
 173	 1951
 173	 1952
 173	 1953
 173	 1954
 173	 1955
 173	 1956
 173	 1957
 173	 1958
 173	 1959
 173	 1960
 173	 1961
 173	 1962
 173	 1963
 173	 1964
 173	 1965
 173	 1966
 174	 1930
 174	 1931
 174	 1932
 174	 1933
 174	 1934
 174	 1935
 174	 1936
 174	 1937
 174	 1938
 174	 1939
 174	 1940
 174	 1941
 174	 1942
 174	 1943
 174	 1944
 174	 1945
 174	 1946
 174	 1947
 174	 1948
 174	 1949
 174	 1950
 174	 1951
 174	 1952
 174	 1953
 174	 1954
 174	 1955
 174	 1956
 174	 1957
 174	 1958
 174	 1959
 174	 1960
 174	 1961
 174	 1962
 174	 1963
 174	 1964
 175	 1929
 175	 1930
 175	 1931
 175	 1932
 175	 1933
 175	 1934
 175	 1935
 175	 1936
 175	 1937
 175	 1938
 175	 1939
 175	 1940
 175	 1941
 175	 1942
 175	 1943
 175	 1944
 175	 1945
 175	 1946
 175	 1947
 175	 1948
 175	 1949
 175	 1950
 175	 1951
 175	 1952
 175	 1953
 175	 1954
 175	 1955
 175	 1956
 175	 1957
 176	 1934
 176	 1935
 176	 1936
 176	 1937
 176	 1938
 176	 1939
 176	 1940
 176	 1941
 176	 1942
 176	 1943
 176	 1944
 177	 1936
 177	 1937
 177	 1938
 177	 1939
 177	 1940
 177	 1941
 177	 1942
 177	 1943
 177	 1944
 178	 1936
 178	 1937
 178	 1938
 178	 1939
 178	 1940
 178	 1941
 178	 1942
 178	 1943
 178	 1944
 178	 1945
 179	 1939
 179	 1940
 179	 1941
 179	 1942
 179	 1943
 179	 1944
 180	 1938
 180	 1939
 180	 1940
 180	 1941
 180	 1942
 180	 1943
 181	 1935
 181	 1936
 181	 1937
 181	 1938
 181	 1939
 181	 1940
 181	 1941
 181	 1942
 182	 1935
 182	 1936
 182	 1937
 182	 1938
 182	 1939
 182	 1940
 182	 1941
 183	 1935
 183	 1936
 183	 1937
 183	 1938
 183	 1939
 183	 1940
 184	 1935
 184	 1936
 184	 1937
 184	 1938
 184	 1939
 185	 1935
 185	 1936
 185	 1937
 185	 1938
 185	 1939
 186	 1935
 186	 1936
 186	 1937
 186	 1938
 186	 1939
 186	 1940
 186	 1941
 186	 1942
 187	 1930
 187	 1931
 187	 1932
 187	 1933
 187	 1934
 187	 1935
 187	 1936
 187	 1937
 187	 1938
 187	 1939
 187	 1940
 187	 1941
 187	 1942
 187	 1943
 187	 1944
 188	 1925
 188	 1926
 188	 1927
 188	 1928
 188	 1929
 188	 1930
 188	 1931
 188	 1932
 188	 1933
 188	 1934
 188	 1935
 188	 1936
 188	 1937
 188	 1938
 188	 1939
 188	 1940
 188	 1941
 188	 1942
 188	 1943
 188	 1944
 189	 1924
 189	 1925
 189	 1926
 189	 1927
 189	 1928
 189	 1929
 189	 1930
 189	 1931
 189	 1932
 189	 1933
 189	 1934
 189	 1935
 189	 1936
 189	 1937
 189	 1938
 189	 1939
 190	 1920
 190	 1921
 190	 1922
 190	 1923
 190	 1924
 190	 1925
 190	 1926
 190	 1927
 190	 1928
 190	 1929
 190	 1930
 190	 1931
 190	 1932
 190	 1933
 190	 1934
 191	 1914
 191	 1915
 191	 1916
 191	 1917
 191	 1918
 191	 1919
 191	 1920
 191	 1921
 191	 1922
 191	 1923
 191	 1924
 191	 1925
 191	 1926
 191	 1927
 191	 1928
 191	 1929
 192	 1911
 192	 1912
 192	 1913
 192	 1914
 192	 1915
 192	 1916
 192	 1917
 192	 1918
 192	 1919
 192	 1920
 192	 1921
 192	 1922
 192	 1923
 192	 1924
 192	 1925
 192	 1926
 193	 1909
 193	 1910
 193	 1911
 193	 1912
 193	 1913
 193	 1914
 193	 1915
 193	 1916
 193	 1917
 193	 1918
 193	 1919
 193	 1920
 193	 1921
 193	 1922
 193	 1923
 194	 1909
 194	 1910
 194	 1911
 194	 1912
 194	 1913
 194	 1914
 194	 1915
 194	 1916
 194	 1917
 194	 1918
 194	 1919
 195	 1909
 195	 1910
 195	 1911
 195	 1912
 195	 1913
 195	 1914
 196	 1909
 196	 1910
 196	 1911
 196	 1912
 196	 1913
 196	 1914
 197	 1910
 197	 1911
 197	 1912
 197	 1913
 197	 1914
 198	 1911
 198	 1912
 198	 1913
 198	 1914
 198	 1915
 198	 1916
 198	 1917
 199	 1912
 199	 1913
 199	 1914
 199	 1915
 199	 1916
 199	 1917
 200	 1912
 200	 1913
 200	 1914
 200	 1915
 200	 1916
 200	 1917
 200	 1918
 201	 1914
 201	 1915
 201	 1916
 201	 1917
 201	 1918
 202	 1913
 202	 1914
 202	 1915
 202	 1916
 202	 1917
 202	 1918
 203	 1911
 203	 1912
 203	 1913
 203	 1914
 203	 1915
 203	 1916
 203	 1917
 204	 1909
 204	 1910
 204	 1911
 204	 1912
 204	 1913
 204	 1914
 204	 1915
 204	 1916
 204	 1917
 204	 1918
 204	 1919
 205	 1910
 205	 1911
 205	 1912
 205	 1913
 205	 1914
 205	 1915
 205	 1916
 205	 1917
 205	 1918
 205	 1919
 206	 1911
 206	 1912
 206	 1913
 206	 1914
 206	 1915
 206	 1916
 206	 1917
 206	 1918
 207	 1911
 207	 1912
 207	 1913
 207	 1914
 207	 1915
 207	 1916
 207	 1917
 207	 1918
 207	 1919
 208	 1912
 208	 1913
 208	 1914
 208	 1915
 208	 1916
 208	 1917
 208	 1918
 208	 1919
 208	 1920
 209	 1911
 209	 1912
 209	 1913
 209	 1914
 209	 1915
 209	 1916
 209	 1917
 209	 1918
 209	 1919
 209	 1920
 209	 1921
 210	 1905
 210	 1906
 210	 1907
 210	 1908
 210	 1909
 210	 1910
 210	 1911
 210	 1912
 210	 1913
 210	 1914
 210	 1915
 210	 1916
 210	 1917
 210	 1918
 210	 1919
 210	 1920
 210	 1921
 211	 1902
 211	 1903
 211	 1904
 211	 1905
 211	 1906
 211	 1907
 211	 1908
 211	 1909
 211	 1910
 211	 1911
 211	 1912
 211	 1913
 211	 1914
 211	 1915
 211	 1916
 211	 1917
 211	 1918
 211	 1919
 211	 1920
 212	 1901
 212	 1902
 212	 1903
 212	 1904
 212	 1905
 212	 1906
 212	 1907
 212	 1908
 212	 1909
 212	 1910
 212	 1911
 212	 1912
 212	 1913
 212	 1914
 212	 1915
 212	 1916
 212	 1917
 212	 1918
 213	 1901
 213	 1902
 213	 1903
 213	 1904
 213	 1905
 213	 1906
 213	 1907
 213	 1908
 213	 1909
 214	 1901
 214	 1902
 214	 1903
 214	 1904
 214	 1905
 214	 1906
 214	 1907
 215	 1901
 215	 1902
 215	 1903
 215	 1904
 215	 1905
 215	 1906
 215	 1907
 215	 1908
 215	 1909
 216	 1903
 216	 1904
 216	 1905
 216	 1906
 216	 1907
 216	 1908
 216	 1909
 217	 1903
 217	 1904
 217	 1905
 217	 1906
 217	 1907
 217	 1908
 218	 1903
 218	 1904
 218	 1905
 218	 1906
 218	 1907
 218	 1908
 218	 1909
 218	 1910
 219	 1899
 219	 1900
 219	 1901
 219	 1902
 219	 1903
 219	 1904
 219	 1905
 219	 1906
 219	 1907
 219	 1908
 219	 1909
 219	 1910
 219	 1911
 220	 1893
 220	 1894
 220	 1895
 220	 1896
 220	 1897
 220	 1898
 220	 1899
 220	 1900
 220	 1901
 220	 1902
 220	 1903
 220	 1904
 220	 1905
 220	 1906
 220	 1907
 220	 1908
 220	 1909
 220	 1910
 221	 1888
 221	 1889
 221	 1890
 221	 1891
 221	 1892
 221	 1893
 221	 1894
 221	 1895
 221	 1896
 221	 1897
 221	 1898
 221	 1899
 221	 1900
 221	 1901
 221	 1902
 221	 1903
 221	 1904
 221	 1905
 221	 1906
 221	 1907
 221	 1908
 222	 1885
 222	 1886
 222	 1887
 222	 1888
 222	 1889
 222	 1890
 222	 1891
 222	 1892
 222	 1893
 222	 1894
 222	 1895
 222	 1896
 222	 1897
 222	 1898
 222	 1899
 222	 1900
 222	 1901
 222	 1902
 222	 1903
 222	 1904
 223	 1882
 223	 1883
 223	 1884
 223	 1885
 223	 1886
 223	 1887
 223	 1888
 223	 1889
 223	 1890
 223	 1891
 223	 1892
 223	 1893
 223	 1894
 223	 1895
 223	 1896
 223	 1897
 223	 1898
 224	 1880
 224	 1881
 224	 1882
 224	 1883
 224	 1884
 224	 1885
 224	 1886
 224	 1887
 224	 1888
 224	 1889
 224	 1890
 224	 1891
 224	 1892
 224	 1893
 224	 1894
 224	 1895
 224	 1896
 224	 1897
 224	 1898
 224	 1899
 224	 1900
 224	 1901
 224	 1902
 224	 1903
 224	 1904
 224	 1905
 224	 1906
 224	 1907
 224	 1908
 224	 1909
 225	 1883
 225	 1884
 225	 1885
 225	 1886
 225	 1887
 225	 1888
 225	 1889
 225	 1890
 225	 1891
 225	 1892
 225	 1893
 225	 1894
 225	 1895
 225	 1896
 225	 1897
 225	 1898
 225	 1899
 225	 1900
 225	 1901
 225	 1902
 225	 1903
 225	 1904
 225	 1905
 225	 1906
 225	 1907
 225	 1908
 225	 1909
 225	 1910
 225	 1911
 225	 1912
 225	 1913
 225	 1914
 225	 1915
 225	 1916
 225	 1917
 225	 1918
 225	 1919
 225	 1920
 225	 1921
 226	 1891
 226	 1892
 226	 1893
 226	 1894
 226	 1895
 226	 1896
 226	 1897
 226	 1898
 226	 1899
 226	 1900
 226	 1901
 226	 1902
 226	 1903
 226	 1904
 226	 1905
 226	 1906
 226	 1907
 226	 1908
 226	 1909
 226	 1910
 226	 1911
 226	 1912
 226	 1913
 226	 1914
 226	 1915
 226	 1916
 226	 1917
 226	 1918
 226	 1919
 226	 1920
 226	 1921
 226	 1922
 226	 1923
 226	 1924
 226	 1925
 226	 1926
 226	 1927
 227	 1899
 227	 1900
 227	 1901
 227	 1902
 227	 1903
 227	 1904
 227	 1905
 227	 1906
 227	 1907
 227	 1908
 227	 1909
 227	 1910
 227	 1911
 227	 1912
 227	 1913
 227	 1914
 227	 1915
 227	 1916
 227	 1917
 227	 1918
 227	 1919
 227	 1920
 227	 1921
 227	 1922
 227	 1923
 227	 1924
 227	 1925
 227	 1926
 227	 1927
 227	 1928
 227	 1929
 228	 1912
 228	 1913
 228	 1914
 228	 1915
 228	 1916
 228	 1917
 228	 1918
 228	 1919
 228	 1920
 228	 1921
 228	 1922
 228	 1923
 228	 1924
 228	 1925
 228	 1926
 228	 1927
 228	 1928
 228	 1929
 228	 1930
 228	 1931
 229	 1923
 229	 1924
 229	 1925
 229	 1926
 229	 1927
 229	 1928
 229	 1929
 229	 1930
 229	 1931
 229	 1932
 229	 1933
 229	 1934
 229	 1935
 229	 1936
 230	 1927
 230	 1928
 230	 1929
 230	 1930
 230	 1931
 230	 1932
 230	 1933
 230	 1934
 230	 1935
 230	 1936
 230	 1937
 230	 1938
 230	 1939
 230	 1940
 230	 1941
 231	 1929
 231	 1930
 231	 1931
 231	 1932
 231	 1933
 231	 1934
 231	 1935
 231	 1936
 231	 1937
 231	 1938
 231	 1939
 231	 1940
 231	 1941
 231	 1942
 231	 1943
 231	 1944
 232	 1932
 232	 1933
 232	 1934
 232	 1935
 232	 1936
 232	 1937
 232	 1938
 232	 1939
 232	 1940
 232	 1941
 232	 1942
 232	 1943
 232	 1944
 232	 1945
 232	 1946
 233	 1937
 233	 1938
 233	 1939
 233	 1940
 233	 1941
 233	 1942
 233	 1943
 233	 1944
 233	 1945
 233	 1946
 233	 1947
 233	 1948
 233	 1949
 233	 1950
 233	 1951
 233	 1952
 233	 1953
 233	 1954
 234	 1941
 234	 1942
 234	 1943
 234	 1944
 234	 1945
 234	 1946
 234	 1947
 234	 1948
 234	 1949
 234	 1950
 234	 1951
 234	 1952
 234	 1953
 234	 1954
 234	 1955
 234	 1956
 234	 1957
 234	 1958
 234	 1959
 234	 1960
 234	 1961
 235	 1942
 235	 1943
 235	 1944
 235	 1945
 235	 1946
 235	 1947
 235	 1948
 235	 1949
 235	 1950
 235	 1951
 235	 1952
 235	 1953
 235	 1954
 235	 1955
 235	 1956
 235	 1957
 235	 1958
 235	 1959
 235	 1960
 235	 1961
 235	 1962
 235	 1963
 235	 1964
 235	 1965
 235	 1966
 236	 1948
 236	 1949
 236	 1950
 236	 1951
 236	 1952
 236	 1953
 236	 1954
 236	 1955
 236	 1956
 236	 1957
 236	 1958
 236	 1959
 236	 1960
 236	 1961
 236	 1962
 236	 1963
 236	 1964
 236	 1965
 236	 1966
 236	 1967
 236	 1968
 236	 1969
 236	 1970
 237	 1955
 237	 1956
 237	 1957
 237	 1958
 237	 1959
 237	 1960
 237	 1961
 237	 1962
 237	 1963
 237	 1964
 237	 1965
 237	 1966
 237	 1967
 237	 1968
 237	 1969
 237	 1970
 237	 1971
 237	 1972
 237	 1973
 238	 1962
 238	 1963
 238	 1964
 238	 1965
 238	 1966
 238	 1967
 238	 1968
 238	 1969
 238	 1970
 238	 1971
 238	 1972
 238	 1973
 239	 1967
 239	 1968
 239	 1969
 239	 1970
 239	 1971
 239	 1972
 239	 1973
 240	 1966
 240	 1967
 240	 1968
 240	 1969
 240	 1970
 240	 1971
 240	 1972
 240	 1973
 241	 1966
 241	 1967
 241	 1968
 241	 1969
 241	 1970
 241	 1971
 241	 1972
 241	 1973
 242	 1967
 242	 1968
 242	 1969
 242	 1970
 242	 1971
 242	 1972
 242	 1973
 243	 1964
 243	 1965
 243	 1966
 243	 1967
 243	 1968
 243	 1969
 243	 1970
 243	 1971
 243	 1972
 243	 1973
 243	 1974
 244	 1962
 244	 1963
 244	 1964
 244	 1965
 244	 1966
 244	 1967
 244	 1968
 244	 1969
 244	 1970
 244	 1971
 244	 1972
 244	 1973
 245	 1960
 245	 1961
 245	 1962
 245	 1963
 245	 1964
 245	 1965
 245	 1966
 245	 1967
 245	 1968
 245	 1969
 245	 1970
 245	 1971
 246	 1955
 246	 1956
 246	 1957
 246	 1958
 246	 1959
 246	 1960
 246	 1961
 246	 1962
 246	 1963
 246	 1964
 246	 1965
 246	 1966
 246	 1967
 246	 1968
 247	 1952
 247	 1953
 247	 1954
 247	 1955
 247	 1956
 247	 1957
 247	 1958
 247	 1959
 247	 1960
 247	 1961
 247	 1962
 247	 1963
 247	 1964
 248	 1952
 248	 1953
 248	 1954
 248	 1955
 248	 1956
 248	 1957
 248	 1958
 248	 1959
 248	 1960
 248	 1961
 248	 1962
 249	 1952
 249	 1953
 249	 1954
 249	 1955
 249	 1956
 249	 1957
 249	 1958
 249	 1959
 250	 1951
 250	 1952
 250	 1953
 250	 1954
 250	 1955
 251	 1949
 251	 1950
 251	 1951
 251	 1952
 251	 1953
 251	 1954
 251	 1955
 252	 1949
 252	 1950
 252	 1951
 252	 1952
 252	 1953
 252	 1954
 252	 1955
 253	 1947
 253	 1948
 253	 1949
 253	 1950
 253	 1951
 253	 1952
 253	 1953
 254	 1944
 254	 1945
 254	 1946
 254	 1947
 254	 1948
 254	 1949
 254	 1950
 254	 1951
 255	 1943
 255	 1944
 255	 1945
 255	 1946
 255	 1947
 255	 1948
 255	 1949
 255	 1950
 255	 1951
 256	 1942
 256	 1943
 256	 1944
 256	 1945
 256	 1946
 256	 1947
 256	 1948
 256	 1949
 256	 1950
 257	 1942
 257	 1943
 257	 1944
 257	 1945
 257	 1946
 257	 1947
 257	 1948
 257	 1949
 258	 1943
 258	 1944
 258	 1945
 258	 1946
 258	 1947
 258	 1948
 258	 1949
 258	 1950
 259	 1943
 259	 1944
 259	 1945
 259	 1946
 259	 1947
 259	 1948
 259	 1949
 259	 1950
 259	 1951
 260	 1939
 260	 1940
 260	 1941
 260	 1942
 260	 1943
 260	 1944
 260	 1945
 260	 1946
 260	 1947
 260	 1948
 260	 1949
 260	 1950
 261	 1937
 261	 1938
 261	 1939
 261	 1940
 261	 1941
 261	 1942
 261	 1943
 261	 1944
 261	 1945
 261	 1946
 261	 1947
 261	 1948
 262	 1938
 262	 1939
 262	 1940
 262	 1941
 262	 1942
 262	 1943
 262	 1944
 262	 1945
 263	 1939
 263	 1940
 263	 1941
 263	 1942
 263	 1943
 264	 1939
 264	 1940
 264	 1941
 264	 1942
 264	 1943
 264	 1944
 265	 1940
 265	 1941
 265	 1942
 265	 1943
 265	 1944
 266	 1938
 266	 1939
 266	 1940
 266	 1941
 266	 1942
 266	 1943
 266	 1944
 267	 1938
 267	 1939
 267	 1940
 267	 1941
 267	 1942
 267	 1943
 268	 1938
 268	 1939
 268	 1940
 268	 1941
 268	 1942
 269	 1938
 269	 1939
 269	 1940
 269	 1941
 270	 1938
 270	 1939
 270	 1940
 270	 1941
 271	 1938
 271	 1939
 271	 1940
 271	 1941
 272	 1938
 272	 1939
 272	 1940
 272	 1941
 272	 1942
 272	 1943
 272	 1944
 273	 1938
 273	 1939
 273	 1940
 273	 1941
 273	 1942
 273	 1943
 273	 1944
 274	 1938
 274	 1939
 274	 1940
 274	 1941
 274	 1942
 274	 1943
 275	 1938
 275	 1939
 275	 1940
 275	 1941
 275	 1942
 276	 1938
 276	 1939
 276	 1940
 276	 1941
 276	 1942
 276	 1943
 277	 1938
 277	 1939
 277	 1940
 277	 1941
 277	 1942
 277	 1943
 278	 1938
 278	 1939
 278	 1940
 278	 1941
 278	 1942
 278	 1943
 279	 1938
 279	 1939
 279	 1940
 279	 1941
 279	 1942
 279	 1943
 279	 1944
 279	 1945
 280	 1938
 280	 1939
 280	 1940
 280	 1941
 280	 1942
 280	 1943
 280	 1944
 281	 1938
 281	 1939
 281	 1940
 281	 1941
 281	 1942
 282	 1938
 282	 1939
 282	 1940
 282	 1941
 283	 1938
 283	 1939
 283	 1940
 283	 1941
 283	 1942
 284	 1938
 284	 1939
 284	 1940
 284	 1941
 284	 1942
 284	 1943
 285	 1938
 285	 1939
 285	 1940
 285	 1941
 285	 1942
 286	 1934
 286	 1935
 286	 1936
 286	 1937
 286	 1938
 286	 1939
 286	 1940
 286	 1941
 286	 1942
 287	 1934
 287	 1935
 287	 1936
 287	 1937
 287	 1938
 287	 1939
 287	 1940
 287	 1941
 287	 1942
 287	 1943
 288	 1934
 288	 1935
 288	 1936
 288	 1937
 288	 1938
 288	 1939
 288	 1940
 288	 1941
 289	 1934
 289	 1935
 289	 1936
 289	 1937
 289	 1938
 289	 1939
 290	 1935
 290	 1936
 290	 1937
 290	 1938
 290	 1939
 291	 1936
 291	 1937
 291	 1938
 291	 1939
 292	 1936
 292	 1937
 292	 1938
 292	 1939
 293	 1934
 293	 1935
 293	 1936
 293	 1937
 293	 1938
 293	 1939
 294	 1934
 294	 1935
 294	 1936
 294	 1937
 294	 1938
 294	 1939
 295	 1933
 295	 1934
 295	 1935
 295	 1936
 295	 1937
 295	 1938
 295	 1939
 296	 1931
 296	 1932
 296	 1933
 296	 1934
 296	 1935
 296	 1936
 296	 1937
 297	 1930
 297	 1931
 297	 1932
 297	 1933
 297	 1934
 297	 1935
 297	 1936
 297	 1937
 298	 1931
 298	 1932
 298	 1933
 298	 1934
 298	 1935
 298	 1936
 299	 1932
 299	 1933
 299	 1934
 299	 1935
 299	 1936
 299	 1937
 300	 1932
 300	 1933
 300	 1934
 300	 1935
 300	 1936
 300	 1937
 300	 1938
 301	 1930
 301	 1931
 301	 1932
 301	 1933
 301	 1934
 301	 1935
 301	 1936
 301	 1937
 301	 1938
 301	 1939
 302	 1931
 302	 1932
 302	 1933
 302	 1934
 302	 1935
 302	 1936
 302	 1937
 302	 1938
 302	 1939
 303	 1932
 303	 1933
 303	 1934
 303	 1935
 303	 1936
 304	 1932
 304	 1933
 304	 1934
 304	 1935
 304	 1936
 304	 1937
 305	 1932
 305	 1933
 305	 1934
 305	 1935
 305	 1936
 305	 1937
 305	 1938
 306	 1932
 306	 1933
 306	 1934
 306	 1935
 306	 1936
 306	 1937
 306	 1938
 306	 1939
 307	 1935
 307	 1936
 307	 1937
 307	 1938
 307	 1939
 308	 1934
 308	 1935
 308	 1936
 308	 1937
 308	 1938
 308	 1939
 309	 1933
 309	 1934
 309	 1935
 309	 1936
 309	 1937
 309	 1938
 309	 1939
 310	 1932
 310	 1933
 310	 1934
 310	 1935
 310	 1936
 310	 1937
 310	 1938
 310	 1939
 311	 1931
 311	 1932
 311	 1933
 311	 1934
 311	 1935
 311	 1936
 312	 1931
 312	 1932
 312	 1933
 312	 1934
 312	 1935
 313	 1931
 313	 1932
 313	 1933
 313	 1934
 314	 1930
 314	 1931
 314	 1932
 314	 1933
 315	 1929
 315	 1930
 315	 1931
 315	 1932
 315	 1933
 316	 1929
 316	 1930
 316	 1931
 316	 1932
 317	 1927
 317	 1928
 317	 1929
 317	 1930
 317	 1931
 317	 1932
 318	 1925
 318	 1926
 318	 1927
 318	 1928
 318	 1929
 318	 1930
 318	 1931
 318	 1932
 319	 1926
 319	 1927
 319	 1928
 319	 1929
 319	 1930
 319	 1931
 319	 1932
 319	 1933
 320	 1927
 320	 1928
 320	 1929
 320	 1930
 320	 1931
 320	 1932
 321	 1928
 321	 1929
 321	 1930
 321	 1931
 321	 1932
 321	 1933
 322	 1929
 322	 1930
 322	 1931
 322	 1932
 322	 1933
 323	 1928
 323	 1929
 323	 1930
 323	 1931
 323	 1932
 323	 1933
 324	 1927
 324	 1928
 324	 1929
 324	 1930
 324	 1931
 324	 1932
 325	 1926
 325	 1927
 325	 1928
 325	 1929
 325	 1930
 325	 1931
 326	 1925
 326	 1926
 326	 1927
 326	 1928
 326	 1929
 326	 1930
 326	 1931
 326	 1932
 327	 1926
 327	 1927
 327	 1928
 327	 1929
 327	 1930
 327	 1931
 327	 1932
 327	 1933
 328	 1929
 328	 1930
 328	 1931
 328	 1932
 328	 1933
 329	 1929
 329	 1930
 329	 1931
 329	 1932
 329	 1933
 329	 1934
 330	 1928
 330	 1929
 330	 1930
 330	 1931
 330	 1932
 330	 1933
 330	 1934
 331	 1926
 331	 1927
 331	 1928
 331	 1929
 331	 1930
 331	 1931
 331	 1932
 332	 1925
 332	 1926
 332	 1927
 332	 1928
 332	 1929
 332	 1930
 332	 1931
 332	 1932
 332	 1933
 333	 1927
 333	 1928
 333	 1929
 333	 1930
 333	 1931
 333	 1932
 334	 1928
 334	 1929
 334	 1930
 334	 1931
 335	 1928
 335	 1929
 335	 1930
 335	 1931
 335	 1932
 336	 1928
 336	 1929
 336	 1930
 336	 1931
 336	 1932
 336	 1933
 336	 1934
 337	 1929
 337	 1930
 337	 1931
 337	 1932
 337	 1933
 337	 1934
 337	 1935
 338	 1929
 338	 1930
 338	 1931
 338	 1932
 338	 1933
 338	 1934
 339	 1929
 339	 1930
 339	 1931
 339	 1932
 339	 1933
 340	 1928
 340	 1929
 340	 1930
 340	 1931
 340	 1932
 340	 1933
 341	 1928
 341	 1929
 341	 1930
 341	 1931
 341	 1932
 341	 1933
 342	 1928
 342	 1929
 342	 1930
 342	 1931
 342	 1932
 343	 1928
 343	 1929
 343	 1930
 343	 1931
 343	 1932
 343	 1933
 343	 1934
 343	 1935
 344	 1929
 344	 1930
 344	 1931
 344	 1932
 344	 1933
 344	 1934
 344	 1935
 345	 1930
 345	 1931
 345	 1932
 345	 1933
 345	 1934
 345	 1935
 346	 1931
 346	 1932
 346	 1933
 346	 1934
 346	 1935
 347	 1932
 347	 1933
 347	 1934
 347	 1935
 347	 1936
 348	 1932
 348	 1933
 348	 1934
 348	 1935
 348	 1936
 348	 1937
 349	 1933
 349	 1934
 349	 1935
 349	 1936
 349	 1937
 350	 1932
 350	 1933
 350	 1934
 350	 1935
 350	 1936
 350	 1937
 351	 1931
 351	 1932
 351	 1933
 351	 1934
 351	 1935
 351	 1936
 351	 1937
 352	 1931
 352	 1932
 352	 1933
 352	 1934
 352	 1935
 352	 1936
 352	 1937
 352	 1938
 353	 1932
 353	 1933
 353	 1934
 353	 1935
 353	 1936
 353	 1937
 353	 1938
 354	 1932
 354	 1933
 354	 1934
 354	 1935
 354	 1936
 355	 1932
 355	 1933
 355	 1934
 355	 1935
 355	 1936
 356	 1933
 356	 1934
 356	 1935
 356	 1936
 356	 1937
 357	 1933
 357	 1934
 357	 1935
 357	 1936
 357	 1937
 357	 1938
 358	 1932
 358	 1933
 358	 1934
 358	 1935
 358	 1936
 358	 1937
 358	 1938
 358	 1939
 359	 1933
 359	 1934
 359	 1935
 359	 1936
 359	 1937
 359	 1938
 359	 1939
 360	 1936
 360	 1937
 360	 1938
 360	 1939
 361	 1936
 361	 1937
 361	 1938
 361	 1939
 362	 1936
 362	 1937
 362	 1938
 362	 1939
 363	 1933
 363	 1934
 363	 1935
 363	 1936
 363	 1937
 363	 1938
 363	 1939
 363	 1940
 364	 1930
 364	 1931
 364	 1932
 364	 1933
 364	 1934
 364	 1935
 364	 1936
 364	 1937
 364	 1938
 364	 1939
 364	 1940
 364	 1941
 365	 1930
 365	 1931
 365	 1932
 365	 1933
 365	 1934
 365	 1935
 365	 1936
 365	 1937
 365	 1938
 365	 1939
 365	 1940
 366	 1933
 366	 1934
 366	 1935
 366	 1936
 366	 1937
 366	 1938
 366	 1939
 366	 1940
 367	 1936
 367	 1937
 367	 1938
 367	 1939
 367	 1940
 368	 1936
 368	 1937
 368	 1938
 368	 1939
 368	 1940
 369	 1936
 369	 1937
 369	 1938
 369	 1939
 369	 1940
 370	 1936
 370	 1937
 370	 1938
 370	 1939
 371	 1936
 371	 1937
 371	 1938
 371	 1939
 372	 1937
 372	 1938
 372	 1939
 373	 1935
 373	 1936
 373	 1937
 373	 1938
 373	 1939
 374	 1934
 374	 1935
 374	 1936
 374	 1937
 374	 1938
 374	 1939
 375	 1933
 375	 1934
 375	 1935
 375	 1936
 375	 1937
 375	 1938
 375	 1939
 376	 1933
 376	 1934
 376	 1935
 376	 1936
 376	 1937
 376	 1938
 376	 1939
 377	 1935
 377	 1936
 377	 1937
 377	 1938
 377	 1939
 378	 1935
 378	 1936
 378	 1937
 378	 1938
 378	 1939
 379	 1935
 379	 1936
 379	 1937
 379	 1938
 379	 1939
 380	 1936
 380	 1937
 380	 1938
 380	 1939
 381	 1936
 381	 1937
 381	 1938
 381	 1939
 381	 1940
 382	 1935
 382	 1936
 382	 1937
 382	 1938
 382	 1939
 382	 1940
 382	 1941
 382	 1942
 383	 1935
 383	 1936
 383	 1937
 383	 1938
 383	 1939
 383	 1940
 383	 1941
 383	 1942
 384	 1936
 384	 1937
 384	 1938
 384	 1939
 384	 1940
 384	 1941
 384	 1942
 385	 1936
 385	 1937
 385	 1938
 385	 1939
 385	 1940
 385	 1941
 386	 1936
 386	 1937
 386	 1938
 386	 1939
 387	 1936
 387	 1937
 387	 1938
 387	 1939
 388	 1936
 388	 1937
 388	 1938
 388	 1939
 389	 1932
 389	 1933
 389	 1934
 389	 1935
 389	 1936
 389	 1937
 389	 1938
 389	 1939
 390	 1932
 390	 1933
 390	 1934
 390	 1935
 390	 1936
 390	 1937
 390	 1938
 390	 1939
 391	 1932
 391	 1933
 391	 1934
 391	 1935
 391	 1936
 391	 1937
 391	 1938
 391	 1939
 392	 1932
 392	 1933
 392	 1934
 392	 1935
 393	 1932
 393	 1933
 393	 1934
 393	 1935
 393	 1936
 394	 1932
 394	 1933
 394	 1934
 394	 1935
 394	 1936
 395	 1933
 395	 1934
 395	 1935
 395	 1936
 395	 1937
 396	 1933
 396	 1934
 396	 1935
 396	 1936
 396	 1937
 397	 1932
 397	 1933
 397	 1934
 397	 1935
 397	 1936
 397	 1937
 398	 1932
 398	 1933
 398	 1934
 398	 1935
 398	 1936
 398	 1937
 399	 1932
 399	 1933
 399	 1934
 399	 1935
 399	 1936
 400	 1932
 400	 1933
 400	 1934
 400	 1935
 400	 1936
 401	 1933
 401	 1934
 401	 1935
 401	 1936
 401	 1937
 402	 1933
 402	 1934
 402	 1935
 402	 1936
 402	 1937
 402	 1938
 403	 1934
 403	 1935
 403	 1936
 403	 1937
 403	 1938
 404	 1934
 404	 1935
 404	 1936
 404	 1937
 404	 1938
 405	 1932
 405	 1933
 405	 1934
 405	 1935
 405	 1936
 405	 1937
 406	 1932
 406	 1933
 406	 1934
 406	 1935
 406	 1936
 406	 1937
 407	 1932
 407	 1933
 407	 1934
 407	 1935
 407	 1936
 408	 1932
 408	 1933
 408	 1934
 408	 1935
 409	 1932
 409	 1933
 409	 1934
 409	 1935
 410	 1932
 410	 1933
 410	 1934
 410	 1935
 410	 1936
 411	 1931
 411	 1932
 411	 1933
 411	 1934
 411	 1935
 411	 1936
 411	 1937
 412	 1931
 412	 1932
 412	 1933
 412	 1934
 412	 1935
 412	 1936
 413	 1931
 413	 1932
 413	 1933
 413	 1934
 414	 1931
 414	 1932
 414	 1933
 414	 1934
 414	 1935
 415	 1931
 415	 1932
 415	 1933
 415	 1934
 415	 1935
 416	 1931
 416	 1932
 416	 1933
 416	 1934
 416	 1935
 417	 1929
 417	 1930
 417	 1931
 417	 1932
 417	 1933
 417	 1934
 417	 1935
 418	 1927
 418	 1928
 418	 1929
 418	 1930
 418	 1931
 418	 1932
 418	 1933
 418	 1934
 418	 1935
 419	 1927
 419	 1928
 419	 1929
 419	 1930
 419	 1931
 419	 1932
 419	 1933
 419	 1934
 419	 1935
 420	 1928
 420	 1929
 420	 1930
 420	 1931
 420	 1932
 420	 1933
 421	 1928
 421	 1929
 421	 1930
 421	 1931
 421	 1932
 421	 1933
 422	 1926
 422	 1927
 422	 1928
 422	 1929
 422	 1930
 422	 1931
 422	 1932
 422	 1933
 423	 1923
 423	 1924
 423	 1925
 423	 1926
 423	 1927
 423	 1928
 423	 1929
 423	 1930
 423	 1931
 423	 1932
 424	 1919
 424	 1920
 424	 1921
 424	 1922
 424	 1923
 424	 1924
 424	 1925
 424	 1926
 424	 1927
 424	 1928
 424	 1929
 424	 1930
 425	 1917
 425	 1918
 425	 1919
 425	 1920
 425	 1921
 425	 1922
 425	 1923
 425	 1924
 425	 1925
 425	 1926
 425	 1927
 425	 1928
 425	 1929
 426	 1919
 426	 1920
 426	 1921
 426	 1922
 426	 1923
 426	 1924
 426	 1925
 426	 1926
 426	 1927
 426	 1928
 427	 1922
 427	 1923
 427	 1924
 427	 1925
 427	 1926
 427	 1927
 428	 1922
 428	 1923
 428	 1924
 428	 1925
 428	 1926
 429	 1922
 429	 1923
 429	 1924
 429	 1925
 430	 1922
 430	 1923
 430	 1924
 430	 1925
 430	 1926
 430	 1927
 431	 1922
 431	 1923
 431	 1924
 431	 1925
 431	 1926
 431	 1927
 432	 1922
 432	 1923
 432	 1924
 432	 1925
 432	 1926
 432	 1927
 433	 1922
 433	 1923
 433	 1924
 433	 1925
 433	 1926
 433	 1927
 433	 1928
 434	 1924
 434	 1925
 434	 1926
 434	 1927
 434	 1928
 435	 1925
 435	 1926
 435	 1927
 435	 1928
 435	 1929
 436	 1925
 436	 1926
 436	 1927
 436	 1928
 436	 1929
 436	 1930
 437	 1926
 437	 1927
 437	 1928
 437	 1929
 437	 1930
 437	 1931
 438	 1926
 438	 1927
 438	 1928
 438	 1929
 438	 1930
 438	 1931
 439	 1922
 439	 1923
 439	 1924
 439	 1925
 439	 1926
 439	 1927
 439	 1928
 439	 1929
 439	 1930
 439	 1931
 440	 1923
 440	 1924
 440	 1925
 440	 1926
 440	 1927
 440	 1928
 440	 1929
 440	 1930
 440	 1931
 441	 1924
 441	 1925
 441	 1926
 441	 1927
 441	 1928
 441	 1929
 441	 1930
 442	 1925
 442	 1926
 442	 1927
 442	 1928
 442	 1929
 443	 1925
 443	 1926
 443	 1927
 443	 1928
 443	 1929
 444	 1924
 444	 1925
 444	 1926
 444	 1927
 444	 1928
 445	 1923
 445	 1924
 445	 1925
 445	 1926
 445	 1927
 446	 1922
 446	 1923
 446	 1924
 446	 1925
 446	 1926
 446	 1927
 447	 1922
 447	 1923
 447	 1924
 447	 1925
 447	 1926
 447	 1927
 448	 1923
 448	 1924
 448	 1925
 448	 1926
 448	 1927
 449	 1923
 449	 1924
 449	 1925
 449	 1926
 449	 1927
 450	 1923
 450	 1924
 450	 1925
 450	 1926
 451	 1923
 451	 1924
 451	 1925
 451	 1926
 452	 1923
 452	 1924
 452	 1925
 452	 1926
 453	 1923
 453	 1924
 453	 1925
 453	 1926
 453	 1927
 454	 1923
 454	 1924
 454	 1925
 454	 1926
 454	 1927
 454	 1928
 455	 1923
 455	 1924
 455	 1925
 455	 1926
 455	 1927
 455	 1928
 455	 1929
 455	 1930
 456	 1923
 456	 1924
 456	 1925
 456	 1926
 456	 1927
 456	 1928
 456	 1929
 456	 1930
 457	 1925
 457	 1926
 457	 1927
 457	 1928
 457	 1929
 457	 1930
 458	 1926
 458	 1927
 458	 1928
 458	 1929
 458	 1930
 458	 1931
 458	 1932
 458	 1933
 459	 1926
 459	 1927
 459	 1928
 459	 1929
 459	 1930
 459	 1931
 459	 1932
 459	 1933
 459	 1934
 459	 1935
 460	 1928
 460	 1929
 460	 1930
 460	 1931
 460	 1932
 460	 1933
 460	 1934
 461	 1930
 461	 1931
 461	 1932
 461	 1933
 462	 1930
 462	 1931
 462	 1932
 462	 1933
 463	 1930
 463	 1931
 463	 1932
 463	 1933
 463	 1934
 463	 1935
 464	 1931
 464	 1932
 464	 1933
 464	 1934
 464	 1935
 464	 1936
 465	 1931
 465	 1932
 465	 1933
 465	 1934
 465	 1935
 465	 1936
 465	 1937
 466	 1933
 466	 1934
 466	 1935
 466	 1936
 466	 1937
 467	 1934
 467	 1935
 467	 1936
 467	 1937
 467	 1938
 467	 1939
 467	 1940
 468	 1934
 468	 1935
 468	 1936
 468	 1937
 468	 1938
 468	 1939
 468	 1940
 468	 1941
 468	 1942
 468	 1943
 468	 1944
 469	 1935
 469	 1936
 469	 1937
 469	 1938
 469	 1939
 469	 1940
 469	 1941
 469	 1942
 469	 1943
 469	 1944
 469	 1945
 469	 1946
 470	 1937
 470	 1938
 470	 1939
 470	 1940
 470	 1941
 470	 1942
 470	 1943
 470	 1944
 471	 1938
 471	 1939
 471	 1940
 471	 1941
 471	 1942
 472	 1939
 472	 1940
 472	 1941
 472	 1942
 473	 1939
 473	 1940
 473	 1941
 473	 1942
 473	 1943
 474	 1939
 474	 1940
 474	 1941
 474	 1942
 474	 1943
 474	 1944
 475	 1940
 475	 1941
 475	 1942
 475	 1943
 475	 1944
 475	 1945
 476	 1939
 476	 1940
 476	 1941
 476	 1942
 476	 1943
 476	 1944
 476	 1945
 476	 1946
 477	 1938
 477	 1939
 477	 1940
 477	 1941
 477	 1942
 477	 1943
 477	 1944
 477	 1945
 477	 1946
 478	 1940
 478	 1941
 478	 1942
 478	 1943
 478	 1944
 478	 1945
 478	 1946
 479	 1940
 479	 1941
 479	 1942
 479	 1943
 479	 1944
 479	 1945
 479	 1946
 480	 1938
 480	 1939
 480	 1940
 480	 1941
 480	 1942
 480	 1943
 480	 1944
 480	 1945
 480	 1946
 481	 1936
 481	 1937
 481	 1938
 481	 1939
 481	 1940
 481	 1941
 481	 1942
 481	 1943
 481	 1944
 481	 1945
 481	 1946
 482	 1935
 482	 1936
 482	 1937
 482	 1938
 482	 1939
 482	 1940
 482	 1941
 482	 1942
 482	 1943
 482	 1944
 483	 1927
 483	 1928
 483	 1929
 483	 1930
 483	 1931
 483	 1932
 483	 1933
 483	 1934
 483	 1935
 483	 1936
 483	 1937
 483	 1938
 483	 1939
 483	 1940
 483	 1941
 484	 1922
 484	 1923
 484	 1924
 484	 1925
 484	 1926
 484	 1927
 484	 1928
 484	 1929
 484	 1930
 484	 1931
 484	 1932
 484	 1933
 484	 1934
 484	 1935
 484	 1936
 484	 1937
 484	 1938
 484	 1939
 484	 1940
 484	 1941
 485	 1922
 485	 1923
 485	 1924
 485	 1925
 485	 1926
 485	 1927
 485	 1928
 485	 1929
 485	 1930
 485	 1931
 485	 1932
 485	 1933
 485	 1934
 485	 1935
 485	 1936
 485	 1937
 485	 1938
 485	 1939
 485	 1940
 485	 1941
 485	 1942
 485	 1943
 485	 1944
 485	 1945
 485	 1946
 485	 1947
 485	 1948
 485	 1949
 485	 1950
 485	 1951
 485	 1952
 485	 1953
 486	 1922
 486	 1923
 486	 1924
 486	 1925
 486	 1926
 486	 1927
 486	 1928
 486	 1929
 486	 1930
 486	 1931
 486	 1932
 486	 1933
 486	 1934
 486	 1935
 486	 1936
 486	 1937
 486	 1938
 486	 1939
 486	 1940
 486	 1941
 486	 1942
 486	 1943
 486	 1944
 486	 1945
 486	 1946
 486	 1947
 486	 1948
 486	 1949
 486	 1950
 486	 1951
 486	 1952
 486	 1953
 486	 1954
 486	 1955
 486	 1956
 486	 1957
 486	 1958
 486	 1959
 486	 1960
 486	 1961
 486	 1962
 486	 1963
 486	 1964
 487	 1922
 487	 1923
 487	 1924
 487	 1925
 487	 1926
 487	 1927
 487	 1928
 487	 1929
 487	 1930
 487	 1931
 487	 1932
 487	 1933
 487	 1934
 487	 1935
 487	 1936
 487	 1937
 487	 1938
 487	 1939
 487	 1940
 487	 1941
 487	 1942
 487	 1943
 487	 1944
 487	 1945
 487	 1946
 487	 1947
 487	 1948
 487	 1949
 487	 1950
 487	 1951
 487	 1952
 487	 1953
 487	 1954
 487	 1955
 487	 1956
 487	 1957
 487	 1958
 487	 1959
 487	 1960
 487	 1961
 487	 1962
 487	 1963
 488	 1932
 488	 1933
 488	 1934
 488	 1935
 488	 1936
 488	 1937
 488	 1938
 488	 1939
 488	 1940
 488	 1941
 488	 1942
 488	 1943
 488	 1944
 488	 1945
 488	 1946
 488	 1947
 488	 1948
 488	 1949
 488	 1950
 488	 1951
 488	 1952
 488	 1953
 488	 1954
 488	 1955
 488	 1956
 488	 1957
 488	 1958
 488	 1959
 488	 1960
 488	 1961
 489	 1925
 489	 1926
 489	 1927
 489	 1928
 489	 1929
 489	 1930
 489	 1931
 489	 1932
 489	 1933
 489	 1934
 489	 1935
 489	 1936
 489	 1937
 489	 1938
 489	 1939
 489	 1940
 489	 1941
 489	 1942
 489	 1943
 489	 1944
 489	 1945
 489	 1946
 489	 1947
 489	 1948
 489	 1949
 489	 1950
 489	 1951
 489	 1952
 489	 1953
 489	 1954
 489	 1955
 489	 1956
 489	 1957
 489	 1958
 489	 1959
 490	 1923
 490	 1924
 490	 1925
 490	 1926
 490	 1927
 490	 1928
 490	 1929
 490	 1930
 490	 1931
 490	 1932
 490	 1933
 490	 1934
 490	 1935
 490	 1936
 490	 1937
 490	 1938
 490	 1939
 490	 1940
 490	 1941
 490	 1942
 490	 1943
 490	 1944
 490	 1945
 490	 1946
 490	 1947
 490	 1948
 490	 1949
 490	 1950
 490	 1951
 490	 1952
 490	 1953
 490	 1954
 491	 1929
 491	 1930
 491	 1931
 491	 1932
 491	 1933
 491	 1934
 491	 1935
 491	 1936
 491	 1937
 491	 1938
 491	 1939
 491	 1940
 491	 1941
 491	 1942
 491	 1943
 491	 1944
 492	 1927
 492	 1928
 492	 1929
 492	 1930
 492	 1931
 492	 1932
 492	 1933
 492	 1934
 492	 1935
 492	 1936
 492	 1937
 492	 1938
 492	 1939
 492	 1940
 492	 1941
 492	 1942
 493	 1929
 493	 1930
 493	 1931
 493	 1932
 493	 1933
 493	 1934
 493	 1935
 493	 1936
 493	 1937
 493	 1938
 493	 1939
 493	 1940
 494	 1932
 494	 1933
 494	 1934
 494	 1935
 494	 1936
 494	 1937
 494	 1938
 494	 1939
 494	 1940
 494	 1941
 494	 1942
 495	 1933
 495	 1934
 495	 1935
 495	 1936
 495	 1937
 495	 1938
 495	 1939
 495	 1940
 495	 1941
 496	 1930
 496	 1931
 496	 1932
 496	 1933
 496	 1934
 496	 1935
 496	 1936
 496	 1937
 496	 1938
 497	 1930
 497	 1931
 497	 1932
 497	 1933
 497	 1934
 497	 1935
 497	 1936
 498	 1928
 498	 1929
 498	 1930
 498	 1931
 498	 1932
 498	 1933
 498	 1934
 498	 1935
 499	 1927
 499	 1928
 499	 1929
 499	 1930
 499	 1931
 499	 1932
 499	 1933
 500	 1926
 500	 1927
 500	 1928
 500	 1929
 500	 1930
 500	 1931
 500	 1932
 500	 1933
 501	 1926
 501	 1927
 501	 1928
 501	 1929
 501	 1930
 501	 1931
 501	 1932
 501	 1933
 502	 1926
 502	 1927
 502	 1928
 502	 1929
 502	 1930
 502	 1931
 502	 1932
 502	 1933
 503	 1925
 503	 1926
 503	 1927
 503	 1928
 503	 1929
 503	 1930
 503	 1931
 503	 1932
 504	 1924
 504	 1925
 504	 1926
 504	 1927
 504	 1928
 504	 1929
 504	 1930
 504	 1931
 505	 1917
 505	 1918
 505	 1919
 505	 1920
 505	 1921
 505	 1922
 505	 1923
 505	 1924
 505	 1925
 505	 1926
 505	 1927
 505	 1928
 505	 1929
 506	 1912
 506	 1913
 506	 1914
 506	 1915
 506	 1916
 506	 1917
 506	 1918
 506	 1919
 506	 1920
 506	 1921
 506	 1922
 506	 1923
 506	 1924
 506	 1925
 506	 1926
 506	 1927
 507	 1908
 507	 1909
 507	 1910
 507	 1911
 507	 1912
 507	 1913
 507	 1914
 507	 1915
 507	 1916
 507	 1917
 507	 1918
 507	 1919
 507	 1920
 507	 1921
 507	 1922
 507	 1923
 507	 1924
 507	 1925
 507	 1926
 508	 1905
 508	 1906
 508	 1907
 508	 1908
 508	 1909
 508	 1910
 508	 1911
 508	 1912
 508	 1913
 508	 1914
 508	 1915
 508	 1916
 508	 1917
 508	 1918
 508	 1919
 508	 1920
 508	 1921
 508	 1922
 509	 1904
 509	 1905
 509	 1906
 509	 1907
 509	 1908
 509	 1909
 509	 1910
 509	 1911
 509	 1912
 509	 1913
 509	 1914
 509	 1915
 509	 1916
 510	 1904
 510	 1905
 510	 1906
 510	 1907
 510	 1908
 510	 1909
 510	 1910
 510	 1911
 511	 1904
 511	 1905
 511	 1906
 511	 1907
 511	 1908
 511	 1909
 511	 1910
 511	 1911
 512	 1904
 512	 1905
 512	 1906
 512	 1907
 512	 1908
 512	 1909
 512	 1910
 512	 1911
 513	 1905
 513	 1906
 513	 1907
 513	 1908
 513	 1909
 513	 1910
 514	 1906
 514	 1907
 514	 1908
 514	 1909
 514	 1910
 514	 1911
 514	 1912
 514	 1913
 514	 1914
 515	 1907
 515	 1908
 515	 1909
 515	 1910
 515	 1911
 515	 1912
 515	 1913
 515	 1914
 515	 1915
 516	 1908
 516	 1909
 516	 1910
 516	 1911
 516	 1912
 516	 1913
 516	 1914
 517	 1908
 517	 1909
 517	 1910
 517	 1911
 517	 1912
 517	 1913
 518	 1907
 518	 1908
 518	 1909
 518	 1910
 518	 1911
 518	 1912
 518	 1913
 519	 1907
 519	 1908
 519	 1909
 519	 1910
 519	 1911
 519	 1912
 519	 1913
 519	 1914
 520	 1907
 520	 1908
 520	 1909
 520	 1910
 520	 1911
 520	 1912
 520	 1913
 521	 1906
 521	 1907
 521	 1908
 521	 1909
 521	 1910
 521	 1911
 521	 1912
 522	 1907
 522	 1908
 522	 1909
 522	 1910
 522	 1911
 522	 1912
 523	 1909
 523	 1910
 523	 1911
 523	 1912
 523	 1913
 524	 1905
 524	 1906
 524	 1907
 524	 1908
 524	 1909
 524	 1910
 524	 1911
 524	 1912
 524	 1913
 524	 1914
 525	 1900
 525	 1901
 525	 1902
 525	 1903
 525	 1904
 525	 1905
 525	 1906
 525	 1907
 525	 1908
 525	 1909
 525	 1910
 525	 1911
 525	 1912
 525	 1913
 525	 1914
 525	 1915
 526	 1896
 526	 1897
 526	 1898
 526	 1899
 526	 1900
 526	 1901
 526	 1902
 526	 1903
 526	 1904
 526	 1905
 526	 1906
 526	 1907
 526	 1908
 526	 1909
 526	 1910
 526	 1911
 526	 1912
 526	 1913
 527	 1894
 527	 1895
 527	 1896
 527	 1897
 527	 1898
 527	 1899
 527	 1900
 527	 1901
 527	 1902
 527	 1903
 527	 1904
 527	 1905
 527	 1906
 527	 1907
 527	 1908
 527	 1909
 528	 1894
 528	 1895
 528	 1896
 528	 1897
 528	 1898
 528	 1899
 528	 1900
 528	 1901
 528	 1902
 528	 1903
 528	 1904
 529	 1894
 529	 1895
 529	 1896
 529	 1897
 529	 1898
 529	 1899
 529	 1900
 529	 1901
 529	 1902
 529	 1903
 529	 1904
 530	 1894
 530	 1895
 530	 1896
 530	 1897
 530	 1898
 530	 1899
 530	 1900
 530	 1901
 530	 1902
 530	 1903
 530	 1904
 530	 1905
 530	 1906
 531	 1897
 531	 1898
 531	 1899
 531	 1900
 531	 1901
 531	 1902
 531	 1903
 531	 1904
 531	 1905
 531	 1906
 532	 1899
 532	 1900
 532	 1901
 532	 1902
 532	 1903
 532	 1904
 533	 1898
 533	 1899
 533	 1900
 533	 1901
 533	 1902
 533	 1903
 533	 1904
 533	 1905
 533	 1906
 534	 1897
 534	 1898
 534	 1899
 534	 1900
 534	 1901
 534	 1902
 534	 1903
 534	 1904
 534	 1905
 534	 1906
 535	 1892
 535	 1893
 535	 1894
 535	 1895
 535	 1896
 535	 1897
 535	 1898
 535	 1899
 535	 1900
 535	 1901
 535	 1902
 535	 1903
 536	 1884
 536	 1885
 536	 1886
 536	 1887
 536	 1888
 536	 1889
 536	 1890
 536	 1891
 536	 1892
 536	 1893
 536	 1894
 536	 1895
 536	 1896
 536	 1897
 536	 1898
 536	 1899
 536	 1900
 537	 1877
 537	 1878
 537	 1879
 537	 1880
 537	 1881
 537	 1882
 537	 1883
 537	 1884
 537	 1885
 537	 1886
 537	 1887
 537	 1888
 537	 1889
 537	 1890
 537	 1891
 537	 1892
 537	 1893
 537	 1894
 537	 1895
 537	 1896
 537	 1897
 537	 1898
 537	 1899
 537	 1900
 538	 1870
 538	 1871
 538	 1872
 538	 1873
 538	 1874
 538	 1875
 538	 1876
 538	 1877
 538	 1878
 538	 1879
 538	 1880
 538	 1881
 538	 1882
 538	 1883
 538	 1884
 538	 1885
 538	 1886
 538	 1887
 538	 1888
 538	 1889
 538	 1890
 538	 1891
 538	 1892
 538	 1893
 538	 1894
 538	 1895
 538	 1896
 538	 1897
 539	 1868
 539	 1869
 539	 1870
 539	 1871
 539	 1872
 539	 1873
 539	 1874
 539	 1875
 539	 1876
 539	 1877
 539	 1878
 539	 1879
 539	 1880
 539	 1881
 539	 1882
 539	 1883
 539	 1884
 539	 1885
 539	 1886
 539	 1887
 539	 1888
 539	 1889
 539	 1890
 539	 1891
 539	 1892
 539	 1893
 539	 1894
 539	 1895
 539	 1896
 539	 1897
 539	 1898
 539	 1899
 539	 1900
 539	 1901
 539	 1902
 539	 1903
 539	 1904
 539	 1905
 539	 1906
 539	 1907
 539	 1908
 539	 1909
 539	 1910
 539	 1911
 539	 1912
 540	 1875
 540	 1876
 540	 1877
 540	 1878
 540	 1879
 540	 1880
 540	 1881
 540	 1882
 540	 1883
 540	 1884
 540	 1885
 540	 1886
 540	 1887
 540	 1888
 540	 1889
 540	 1890
 540	 1891
 540	 1892
 540	 1893
 540	 1894
 540	 1895
 540	 1896
 540	 1897
 540	 1898
 540	 1899
 540	 1900
 540	 1901
 540	 1902
 540	 1903
 540	 1904
 540	 1905
 540	 1906
 540	 1907
 540	 1908
 540	 1909
 540	 1910
 540	 1911
 540	 1912
 540	 1913
 540	 1914
 540	 1915
 540	 1916
 540	 1917
 540	 1918
 540	 1919
 540	 1920
 540	 1921
 540	 1922
 540	 1923
 541	 1885
 541	 1886
 541	 1887
 541	 1888
 541	 1889
 541	 1890
 541	 1891
 541	 1892
 541	 1893
 541	 1894
 541	 1895
 541	 1896
 541	 1897
 541	 1898
 541	 1899
 541	 1900
 541	 1901
 541	 1902
 541	 1903
 541	 1904
 541	 1905
 541	 1906
 541	 1907
 541	 1908
 541	 1909
 541	 1910
 541	 1911
 541	 1912
 541	 1913
 541	 1914
 541	 1915
 541	 1916
 541	 1917
 541	 1918
 541	 1919
 541	 1920
 541	 1921
 541	 1922
 541	 1923
 541	 1924
 541	 1925
 541	 1926
 541	 1927
 542	 1900
 542	 1901
 542	 1902
 542	 1903
 542	 1904
 542	 1905
 542	 1906
 542	 1907
 542	 1908
 542	 1909
 542	 1910
 542	 1911
 542	 1912
 542	 1913
 542	 1914
 542	 1915
 542	 1916
 542	 1917
 542	 1918
 542	 1919
 542	 1920
 542	 1921
 542	 1922
 542	 1923
 542	 1924
 542	 1925
 542	 1926
 542	 1927
 542	 1928
 542	 1929
 542	 1930
 543	 1916
 543	 1917
 543	 1918
 543	 1919
 543	 1920
 543	 1921
 543	 1922
 543	 1923
 543	 1924
 543	 1925
 543	 1926
 543	 1927
 543	 1928
 543	 1929
 543	 1930
 544	 1922
 544	 1923
 544	 1924
 544	 1925
 544	 1926
 544	 1927
 544	 1928
 544	 1929
 544	 1930
 544	 1931
 544	 1932
 544	 1933
 544	 1934
 544	 1935
 545	 1923
 545	 1924
 545	 1925
 545	 1926
 545	 1927
 545	 1928
 545	 1929
 545	 1930
 545	 1931
 545	 1932
 545	 1933
 545	 1934
 545	 1935
 545	 1936
 545	 1937
 545	 1938
 545	 1939
 545	 1940
 545	 1941
 546	 1925
 546	 1926
 546	 1927
 546	 1928
 546	 1929
 546	 1930
 546	 1931
 546	 1932
 546	 1933
 546	 1934
 546	 1935
 546	 1936
 546	 1937
 546	 1938
 546	 1939
 546	 1940
 546	 1941
 546	 1942
 547	 1930
 547	 1931
 547	 1932
 547	 1933
 547	 1934
 547	 1935
 547	 1936
 547	 1937
 547	 1938
 547	 1939
 547	 1940
 547	 1941
 547	 1942
 547	 1943
 548	 1936
 548	 1937
 548	 1938
 548	 1939
 548	 1940
 548	 1941
 548	 1942
 548	 1943
 548	 1944
 548	 1945
 548	 1946
 548	 1947
 548	 1948
 548	 1949
 548	 1950
 548	 1951
 549	 1935
 549	 1936
 549	 1937
 549	 1938
 549	 1939
 549	 1940
 549	 1941
 549	 1942
 549	 1943
 549	 1944
 549	 1945
 549	 1946
 549	 1947
 549	 1948
 549	 1949
 549	 1950
 549	 1951
 549	 1952
 549	 1953
 549	 1954
 549	 1955
 549	 1956
 549	 1957
 550	 1938
 550	 1939
 550	 1940
 550	 1941
 550	 1942
 550	 1943
 550	 1944
 550	 1945
 550	 1946
 550	 1947
 550	 1948
 550	 1949
 550	 1950
 550	 1951
 550	 1952
 550	 1953
 550	 1954
 550	 1955
 550	 1956
 550	 1957
 550	 1958
 551	 1944
 551	 1945
 551	 1946
 551	 1947
 551	 1948
 551	 1949
 551	 1950
 551	 1951
 551	 1952
 551	 1953
 551	 1954
 551	 1955
 551	 1956
 551	 1957
 551	 1958
 551	 1959
 551	 1960
 551	 1961
 551	 1962
 551	 1963
 552	 1953
 552	 1954
 552	 1955
 552	 1956
 552	 1957
 552	 1958
 552	 1959
 552	 1960
 552	 1961
 552	 1962
 552	 1963
 552	 1964
 552	 1965
 552	 1966
 552	 1967
 553	 1956
 553	 1957
 553	 1958
 553	 1959
 553	 1960
 553	 1961
 553	 1962
 553	 1963
 553	 1964
 553	 1965
 553	 1966
 553	 1967
 553	 1968
 553	 1969
 554	 1958
 554	 1959
 554	 1960
 554	 1961
 554	 1962
 554	 1963
 554	 1964
 554	 1965
 554	 1966
 554	 1967
 554	 1968
 554	 1969
 554	 1970
 555	 1964
 555	 1965
 555	 1966
 555	 1967
 555	 1968
 555	 1969
 555	 1970
 555	 1971
 556	 1966
 556	 1967
 556	 1968
 556	 1969
 556	 1970
 556	 1971
 557	 1963
 557	 1964
 557	 1965
 557	 1966
 557	 1967
 557	 1968
 557	 1969
 557	 1970
 558	 1959
 558	 1960
 558	 1961
 558	 1962
 558	 1963
 558	 1964
 558	 1965
 558	 1966
 558	 1967
 558	 1968
 558	 1969
 559	 1958
 559	 1959
 559	 1960
 559	 1961
 559	 1962
 559	 1963
 559	 1964
 559	 1965
 559	 1966
 559	 1967
 559	 1968
 560	 1957
 560	 1958
 560	 1959
 560	 1960
 560	 1961
 560	 1962
 560	 1963
 560	 1964
 560	 1965
 560	 1966
 561	 1954
 561	 1955
 561	 1956
 561	 1957
 561	 1958
 561	 1959
 561	 1960
 561	 1961
 561	 1962
 562	 1954
 562	 1955
 562	 1956
 562	 1957
 562	 1958
 562	 1959
 562	 1960
 563	 1951
 563	 1952
 563	 1953
 563	 1954
 563	 1955
 563	 1956
 563	 1957
 563	 1958
 563	 1959
 564	 1946
 564	 1947
 564	 1948
 564	 1949
 564	 1950
 564	 1951
 564	 1952
 564	 1953
 564	 1954
 564	 1955
 564	 1956
 564	 1957
 565	 1944
 565	 1945
 565	 1946
 565	 1947
 565	 1948
 565	 1949
 565	 1950
 565	 1951
 565	 1952
 565	 1953
 565	 1954
 565	 1955
 565	 1956
 566	 1943
 566	 1944
 566	 1945
 566	 1946
 566	 1947
 566	 1948
 566	 1949
 566	 1950
 566	 1951
 566	 1952
 566	 1953
 566	 1954
 567	 1942
 567	 1943
 567	 1944
 567	 1945
 567	 1946
 567	 1947
 567	 1948
 567	 1949
 567	 1950
 567	 1951
 568	 1941
 568	 1942
 568	 1943
 568	 1944
 568	 1945
 568	 1946
 568	 1947
 568	 1948
 569	 1941
 569	 1942
 569	 1943
 569	 1944
 569	 1945
 569	 1946
 569	 1947
 569	 1948
 569	 1949
 569	 1950
 570	 1936
 570	 1937
 570	 1938
 570	 1939
 570	 1940
 570	 1941
 570	 1942
 570	 1943
 570	 1944
 570	 1945
 570	 1946
 570	 1947
 570	 1948
 570	 1949
 570	 1950
 570	 1951
 571	 1934
 571	 1935
 571	 1936
 571	 1937
 571	 1938
 571	 1939
 571	 1940
 571	 1941
 571	 1942
 571	 1943
 571	 1944
 571	 1945
 571	 1946
 571	 1947
 571	 1948
 571	 1949
 572	 1935
 572	 1936
 572	 1937
 572	 1938
 572	 1939
 572	 1940
 572	 1941
 572	 1942
 572	 1943
 572	 1944
 572	 1945
 572	 1946
 573	 1938
 573	 1939
 573	 1940
 573	 1941
 573	 1942
 573	 1943
 573	 1944
 573	 1945
 573	 1946
 573	 1947
 574	 1940
 574	 1941
 574	 1942
 574	 1943
 574	 1944
 574	 1945
 574	 1946
 575	 1937
 575	 1938
 575	 1939
 575	 1940
 575	 1941
 575	 1942
 575	 1943
 575	 1944
 575	 1945
 576	 1937
 576	 1938
 576	 1939
 576	 1940
 576	 1941
 576	 1942
 576	 1943
 576	 1944
 577	 1937
 577	 1938
 577	 1939
 577	 1940
 577	 1941
 577	 1942
 578	 1937
 578	 1938
 578	 1939
 578	 1940
 578	 1941
 578	 1942
 579	 1937
 579	 1938
 579	 1939
 579	 1940
 579	 1941
 579	 1942
 579	 1943
 579	 1944
 580	 1938
 580	 1939
 580	 1940
 580	 1941
 580	 1942
 580	 1943
 580	 1944
 581	 1938
 581	 1939
 581	 1940
 581	 1941
 581	 1942
 581	 1943
 581	 1944
 582	 1937
 582	 1938
 582	 1939
 582	 1940
 582	 1941
 582	 1942
 582	 1943
 582	 1944
 583	 1936
 583	 1937
 583	 1938
 583	 1939
 583	 1940
 583	 1941
 583	 1942
 583	 1943
 584	 1936
 584	 1937
 584	 1938
 584	 1939
 584	 1940
 585	 1936
 585	 1937
 585	 1938
 585	 1939
 586	 1936
 586	 1937
 586	 1938
 586	 1939
 586	 1940
 587	 1936
 587	 1937
 587	 1938
 587	 1939
 587	 1940
 587	 1941
 587	 1942
 587	 1943
 587	 1944
 588	 1936
 588	 1937
 588	 1938
 588	 1939
 588	 1940
 588	 1941
 588	 1942
 588	 1943
 588	 1944
 589	 1936
 589	 1937
 589	 1938
 589	 1939
 589	 1940
 589	 1941
 589	 1942
 589	 1943
 590	 1938
 590	 1939
 590	 1940
 590	 1941
 590	 1942
 591	 1938
 591	 1939
 591	 1940
 591	 1941
 591	 1942
 591	 1943
 592	 1938
 592	 1939
 592	 1940
 592	 1941
 592	 1942
 592	 1943
 593	 1938
 593	 1939
 593	 1940
 593	 1941
 593	 1942
 593	 1943
 594	 1937
 594	 1938
 594	 1939
 594	 1940
 594	 1941
 594	 1942
 594	 1943
 594	 1944
 594	 1945
 595	 1937
 595	 1938
 595	 1939
 595	 1940
 595	 1941
 595	 1942
 595	 1943
 595	 1944
 595	 1945
 595	 1946
 596	 1937
 596	 1938
 596	 1939
 596	 1940
 596	 1941
 596	 1942
 596	 1943
 597	 1937
 597	 1938
 597	 1939
 597	 1940
 597	 1941
 598	 1937
 598	 1938
 598	 1939
 598	 1940
 598	 1941
 598	 1942
 598	 1943
 598	 1944
 599	 1937
 599	 1938
 599	 1939
 599	 1940
 599	 1941
 599	 1942
 599	 1943
 599	 1944
 600	 1938
 600	 1939
 600	 1940
 600	 1941
 600	 1942
 600	 1943
 601	 1934
 601	 1935
 601	 1936
 601	 1937
 601	 1938
 601	 1939
 601	 1940
 601	 1941
 601	 1942
 602	 1934
 602	 1935
 602	 1936
 602	 1937
 602	 1938
 602	 1939
 602	 1940
 602	 1941
 602	 1942
 602	 1943
 603	 1934
 603	 1935
 603	 1936
 603	 1937
 603	 1938
 603	 1939
 603	 1940
 603	 1941
 603	 1942
 604	 1934
 604	 1935
 604	 1936
 604	 1937
 604	 1938
 604	 1939
 605	 1931
 605	 1932
 605	 1933
 605	 1934
 605	 1935
 605	 1936
 605	 1937
 605	 1938
 605	 1939
 606	 1931
 606	 1932
 606	 1933
 606	 1934
 606	 1935
 606	 1936
 606	 1937
 606	 1938
 606	 1939
 606	 1940
 607	 1932
 607	 1933
 607	 1934
 607	 1935
 607	 1936
 607	 1937
 608	 1933
 608	 1934
 608	 1935
 608	 1936
 609	 1932
 609	 1933
 609	 1934
 609	 1935
 609	 1936
 609	 1937
 610	 1932
 610	 1933
 610	 1934
 610	 1935
 610	 1936
 610	 1937
 610	 1938
 610	 1939
 611	 1933
 611	 1934
 611	 1935
 611	 1936
 611	 1937
 611	 1938
 611	 1939
 612	 1933
 612	 1934
 612	 1935
 612	 1936
 612	 1937
 612	 1938
 612	 1939
 613	 1933
 613	 1934
 613	 1935
 613	 1936
 613	 1937
 613	 1938
 614	 1933
 614	 1934
 614	 1935
 614	 1936
 614	 1937
 615	 1933
 615	 1934
 615	 1935
 615	 1936
 616	 1933
 616	 1934
 616	 1935
 616	 1936
 616	 1937
 617	 1933
 617	 1934
 617	 1935
 617	 1936
 617	 1937
 618	 1932
 618	 1933
 618	 1934
 618	 1935
 618	 1936
 618	 1937
 619	 1931
 619	 1932
 619	 1933
 619	 1934
 619	 1935
 619	 1936
 619	 1937
 620	 1931
 620	 1932
 620	 1933
 620	 1934
 620	 1935
 620	 1936
 621	 1932
 621	 1933
 621	 1934
 621	 1935
 621	 1936
 621	 1937
 622	 1933
 622	 1934
 622	 1935
 622	 1936
 622	 1937
 623	 1932
 623	 1933
 623	 1934
 623	 1935
 623	 1936
 623	 1937
 624	 1932
 624	 1933
 624	 1934
 624	 1935
 624	 1936
 624	 1937
 625	 1932
 625	 1933
 625	 1934
 625	 1935
 625	 1936
 626	 1931
 626	 1932
 626	 1933
 626	 1934
 627	 1931
 627	 1932
 627	 1933
 627	 1934
 628	 1931
 628	 1932
 628	 1933
 628	 1934
 629	 1929
 629	 1930
 629	 1931
 629	 1932
 629	 1933
 630	 1927
 630	 1928
 630	 1929
 630	 1930
 630	 1931
 630	 1932
 630	 1933
 631	 1927
 631	 1928
 631	 1929
 631	 1930
 631	 1931
 631	 1932
 631	 1933
 632	 1928
 632	 1929
 632	 1930
 632	 1931
 632	 1932
 632	 1933
 633	 1929
 633	 1930
 633	 1931
 633	 1932
 633	 1933
 634	 1928
 634	 1929
 634	 1930
 634	 1931
 634	 1932
 635	 1927
 635	 1928
 635	 1929
 635	 1930
 635	 1931
 635	 1932
 636	 1928
 636	 1929
 636	 1930
 636	 1931
 636	 1932
 636	 1933
 637	 1929
 637	 1930
 637	 1931
 637	 1932
 637	 1933
 638	 1930
 638	 1931
 638	 1932
 638	 1933
 639	 1930
 639	 1931
 639	 1932
 639	 1933
 640	 1930
 640	 1931
 640	 1932
 640	 1933
 641	 1930
 641	 1931
 641	 1932
 641	 1933
 641	 1934
 642	 1930
 642	 1931
 642	 1932
 642	 1933
 642	 1934
 643	 1931
 643	 1932
 643	 1933
 643	 1934
 643	 1935
 644	 1931
 644	 1932
 644	 1933
 644	 1934
 644	 1935
 644	 1936
 645	 1930
 645	 1931
 645	 1932
 645	 1933
 645	 1934
 645	 1935
 645	 1936
 646	 1928
 646	 1929
 646	 1930
 646	 1931
 646	 1932
 646	 1933
 646	 1934
 647	 1927
 647	 1928
 647	 1929
 647	 1930
 647	 1931
 647	 1932
 647	 1933
 647	 1934
 648	 1928
 648	 1929
 648	 1930
 648	 1931
 648	 1932
 648	 1933
 648	 1934
 649	 1930
 649	 1931
 649	 1932
 649	 1933
 649	 1934
 649	 1935
 650	 1932
 650	 1933
 650	 1934
 650	 1935
 651	 1932
 651	 1933
 651	 1934
 651	 1935
 652	 1931
 652	 1932
 652	 1933
 652	 1934
 652	 1935
 653	 1930
 653	 1931
 653	 1932
 653	 1933
 653	 1934
 653	 1935
 654	 1931
 654	 1932
 654	 1933
 654	 1934
 654	 1935
 654	 1936
 654	 1937
 655	 1932
 655	 1933
 655	 1934
 655	 1935
 655	 1936
 655	 1937
 655	 1938
 656	 1933
 656	 1934
 656	 1935
 656	 1936
 656	 1937
 656	 1938
 657	 1935
 657	 1936
 657	 1937
 657	 1938
 657	 1939
 658	 1935
 658	 1936
 658	 1937
 658	 1938
 658	 1939
 659	 1934
 659	 1935
 659	 1936
 659	 1937
 659	 1938
 659	 1939
 660	 1934
 660	 1935
 660	 1936
 660	 1937
 660	 1938
 660	 1939
 661	 1933
 661	 1934
 661	 1935
 661	 1936
 661	 1937
 661	 1938
 662	 1933
 662	 1934
 662	 1935
 662	 1936
 662	 1937
 663	 1933
 663	 1934
 663	 1935
 663	 1936
 663	 1937
 664	 1933
 664	 1934
 664	 1935
 664	 1936
 664	 1937
 665	 1932
 665	 1933
 665	 1934
 665	 1935
 665	 1936
 665	 1937
 666	 1932
 666	 1933
 666	 1934
 666	 1935
 666	 1936
 666	 1937
 666	 1938
 666	 1939
 667	 1933
 667	 1934
 667	 1935
 667	 1936
 667	 1937
 667	 1938
 667	 1939
 667	 1940
 668	 1934
 668	 1935
 668	 1936
 668	 1937
 668	 1938
 668	 1939
 668	 1940
 669	 1933
 669	 1934
 669	 1935
 669	 1936
 669	 1937
 669	 1938
 670	 1933
 670	 1934
 670	 1935
 670	 1936
 670	 1937
 671	 1933
 671	 1934
 671	 1935
 671	 1936
 671	 1937
 672	 1933
 672	 1934
 672	 1935
 672	 1936
 672	 1937
 672	 1938
 672	 1939
 673	 1932
 673	 1933
 673	 1934
 673	 1935
 673	 1936
 673	 1937
 673	 1938
 673	 1939
 674	 1933
 674	 1934
 674	 1935
 674	 1936
 674	 1937
 674	 1938
 674	 1939
 675	 1934
 675	 1935
 675	 1936
 675	 1937
 675	 1938
 675	 1939
 676	 1933
 676	 1934
 676	 1935
 676	 1936
 676	 1937
 676	 1938
 676	 1939
 677	 1934
 677	 1935
 677	 1936
 677	 1937
 677	 1938
 677	 1939
 678	 1935
 678	 1936
 678	 1937
 678	 1938
 678	 1939
 678	 1940
 678	 1941
 679	 1934
 679	 1935
 679	 1936
 679	 1937
 679	 1938
 679	 1939
 679	 1940
 679	 1941
 679	 1942
 679	 1943
 680	 1934
 680	 1935
 680	 1936
 680	 1937
 680	 1938
 680	 1939
 680	 1940
 680	 1941
 681	 1935
 681	 1936
 681	 1937
 681	 1938
 681	 1939
 681	 1940
 682	 1936
 682	 1937
 682	 1938
 682	 1939
 682	 1940
 683	 1936
 683	 1937
 683	 1938
 683	 1939
 683	 1940
 684	 1936
 684	 1937
 684	 1938
 684	 1939
 684	 1940
 685	 1936
 685	 1937
 685	 1938
 685	 1939
 686	 1936
 686	 1937
 686	 1938
 686	 1939
 686	 1940
 686	 1941
 686	 1942
 686	 1943
 687	 1937
 687	 1938
 687	 1939
 687	 1940
 687	 1941
 687	 1942
 687	 1943
 688	 1937
 688	 1938
 688	 1939
 688	 1940
 688	 1941
 688	 1942
 688	 1943
 689	 1938
 689	 1939
 689	 1940
 689	 1941
 689	 1942
 689	 1943
 690	 1938
 690	 1939
 690	 1940
 690	 1941
 690	 1942
 690	 1943
 691	 1937
 691	 1938
 691	 1939
 691	 1940
 691	 1941
 692	 1937
 692	 1938
 692	 1939
 692	 1940
 693	 1937
 693	 1938
 693	 1939
 693	 1940
 693	 1941
 694	 1936
 694	 1937
 694	 1938
 694	 1939
 694	 1940
 694	 1941
 695	 1936
 695	 1937
 695	 1938
 695	 1939
 695	 1940
 695	 1941
 696	 1936
 696	 1937
 696	 1938
 696	 1939
 696	 1940
 697	 1935
 697	 1936
 697	 1937
 697	 1938
 697	 1939
 697	 1940
 698	 1935
 698	 1936
 698	 1937
 698	 1938
 698	 1939
 698	 1940
 699	 1936
 699	 1937
 699	 1938
 699	 1939
 699	 1940
 700	 1935
 700	 1936
 700	 1937
 700	 1938
 700	 1939
 700	 1940
 701	 1934
 701	 1935
 701	 1936
 701	 1937
 701	 1938
 701	 1939
 701	 1940
 701	 1941
 702	 1934
 702	 1935
 702	 1936
 702	 1937
 702	 1938
 702	 1939
 702	 1940
 702	 1941
 702	 1942
 703	 1934
 703	 1935
 703	 1936
 703	 1937
 703	 1938
 703	 1939
 704	 1934
 704	 1935
 704	 1936
 704	 1937
 704	 1938
 705	 1935
 705	 1936
 705	 1937
 705	 1938
 705	 1939
 706	 1935
 706	 1936
 706	 1937
 706	 1938
 706	 1939
 707	 1935
 707	 1936
 707	 1937
 707	 1938
 707	 1939
 708	 1933
 708	 1934
 708	 1935
 708	 1936
 708	 1937
 708	 1938
 708	 1939
 709	 1933
 709	 1934
 709	 1935
 709	 1936
 709	 1937
 709	 1938
 709	 1939
 710	 1933
 710	 1934
 710	 1935
 710	 1936
 710	 1937
 711	 1933
 711	 1934
 711	 1935
 711	 1936
 711	 1937
 712	 1934
 712	 1935
 712	 1936
 712	 1937
 713	 1934
 713	 1935
 713	 1936
 713	 1937
 714	 1934
 714	 1935
 714	 1936
 714	 1937
 714	 1938
 715	 1934
 715	 1935
 715	 1936
 715	 1937
 715	 1938
 716	 1934
 716	 1935
 716	 1936
 716	 1937
 716	 1938
 717	 1934
 717	 1935
 717	 1936
 717	 1937
 718	 1932
 718	 1933
 718	 1934
 718	 1935
 718	 1936
 718	 1937
 719	 1931
 719	 1932
 719	 1933
 719	 1934
 719	 1935
 719	 1936
 719	 1937
 720	 1931
 720	 1932
 720	 1933
 720	 1934
 720	 1935
 720	 1936
 721	 1931
 721	 1932
 721	 1933
 721	 1934
 721	 1935
 721	 1936
 722	 1931
 722	 1932
 722	 1933
 722	 1934
 722	 1935
 723	 1932
 723	 1933
 723	 1934
 723	 1935
 724	 1932
 724	 1933
 724	 1934
 724	 1935
 725	 1932
 725	 1933
 725	 1934
 726	 1932
 726	 1933
 726	 1934
 727	 1932
 727	 1933
 727	 1934
 727	 1935
 728	 1932
 728	 1933
 728	 1934
 728	 1935
 728	 1936
 729	 1932
 729	 1933
 729	 1934
 729	 1935
 729	 1936
 729	 1937
 730	 1933
 730	 1934
 730	 1935
 730	 1936
 730	 1937
 730	 1938
 731	 1934
 731	 1935
 731	 1936
 731	 1937
 731	 1938
 732	 1933
 732	 1934
 732	 1935
 732	 1936
 732	 1937
 732	 1938
 733	 1932
 733	 1933
 733	 1934
 733	 1935
 733	 1936
 733	 1937
 734	 1930
 734	 1931
 734	 1932
 734	 1933
 734	 1934
 734	 1935
 734	 1936
 735	 1930
 735	 1931
 735	 1932
 735	 1933
 735	 1934
 735	 1935
 736	 1930
 736	 1931
 736	 1932
 736	 1933
 736	 1934
 737	 1929
 737	 1930
 737	 1931
 737	 1932
 737	 1933
 738	 1927
 738	 1928
 738	 1929
 738	 1930
 738	 1931
 738	 1932
 738	 1933
 739	 1926
 739	 1927
 739	 1928
 739	 1929
 739	 1930
 739	 1931
 739	 1932
 739	 1933
 740	 1925
 740	 1926
 740	 1927
 740	 1928
 740	 1929
 740	 1930
 740	 1931
 740	 1932
 741	 1924
 741	 1925
 741	 1926
 741	 1927
 741	 1928
 741	 1929
 742	 1923
 742	 1924
 742	 1925
 742	 1926
 742	 1927
 742	 1928
 743	 1922
 743	 1923
 743	 1924
 743	 1925
 743	 1926
 743	 1927
 744	 1921
 744	 1922
 744	 1923
 744	 1924
 744	 1925
 744	 1926
 745	 1921
 745	 1922
 745	 1923
 745	 1924
 745	 1925
 746	 1921
 746	 1922
 746	 1923
 746	 1924
 747	 1921
 747	 1922
 747	 1923
 747	 1924
 748	 1921
 748	 1922
 748	 1923
 748	 1924
 748	 1925
 748	 1926
 749	 1921
 749	 1922
 749	 1923
 749	 1924
 749	 1925
 749	 1926
 749	 1927
 750	 1921
 750	 1922
 750	 1923
 750	 1924
 750	 1925
 750	 1926
 750	 1927
 751	 1923
 751	 1924
 751	 1925
 751	 1926
 751	 1927
 751	 1928
 752	 1925
 752	 1926
 752	 1927
 752	 1928
 752	 1929
 752	 1930
 752	 1931
 752	 1932
 753	 1924
 753	 1925
 753	 1926
 753	 1927
 753	 1928
 753	 1929
 753	 1930
 753	 1931
 753	 1932
 753	 1933
 754	 1921
 754	 1922
 754	 1923
 754	 1924
 754	 1925
 754	 1926
 754	 1927
 754	 1928
 754	 1929
 754	 1930
 754	 1931
 754	 1932
 755	 1921
 755	 1922
 755	 1923
 755	 1924
 755	 1925
 755	 1926
 755	 1927
 755	 1928
 755	 1929
 755	 1930
 756	 1920
 756	 1921
 756	 1922
 756	 1923
 756	 1924
 756	 1925
 756	 1926
 756	 1927
 756	 1928
 757	 1918
 757	 1919
 757	 1920
 757	 1921
 757	 1922
 757	 1923
 757	 1924
 758	 1916
 758	 1917
 758	 1918
 758	 1919
 758	 1920
 758	 1921
 758	 1922
 758	 1923
 758	 1924
 759	 1914
 759	 1915
 759	 1916
 759	 1917
 759	 1918
 759	 1919
 759	 1920
 759	 1921
 759	 1922
 760	 1914
 760	 1915
 760	 1916
 760	 1917
 760	 1918
 760	 1919
 760	 1920
 761	 1912
 761	 1913
 761	 1914
 761	 1915
 761	 1916
 761	 1917
 761	 1918
 762	 1911
 762	 1912
 762	 1913
 762	 1914
 762	 1915
 762	 1916
 762	 1917
 763	 1911
 763	 1912
 763	 1913
 763	 1914
 763	 1915
 763	 1916
 764	 1910
 764	 1911
 764	 1912
 764	 1913
 764	 1914
 765	 1908
 765	 1909
 765	 1910
 765	 1911
 765	 1912
 765	 1913
 765	 1914
 766	 1904
 766	 1905
 766	 1906
 766	 1907
 766	 1908
 766	 1909
 766	 1910
 766	 1911
 766	 1912
 766	 1913
 766	 1914
 767	 1902
 767	 1903
 767	 1904
 767	 1905
 767	 1906
 767	 1907
 767	 1908
 767	 1909
 767	 1910
 767	 1911
 767	 1912
 768	 1900
 768	 1901
 768	 1902
 768	 1903
 768	 1904
 768	 1905
 768	 1906
 768	 1907
 768	 1908
 768	 1909
 768	 1910
 769	 1900
 769	 1901
 769	 1902
 769	 1903
 769	 1904
 769	 1905
 769	 1906
 769	 1907
 769	 1908
 769	 1909
 769	 1910
 770	 1902
 770	 1903
 770	 1904
 770	 1905
 770	 1906
 770	 1907
 770	 1908
 770	 1909
 770	 1910
 771	 1905
 771	 1906
 771	 1907
 771	 1908
 771	 1909
 771	 1910
 772	 1905
 772	 1906
 772	 1907
 772	 1908
 772	 1909
 772	 1910
 773	 1903
 773	 1904
 773	 1905
 773	 1906
 773	 1907
 773	 1908
 773	 1909
 774	 1902
 774	 1903
 774	 1904
 774	 1905
 774	 1906
 774	 1907
 774	 1908
 774	 1909
 774	 1910
 775	 1904
 775	 1905
 775	 1906
 775	 1907
 775	 1908
 775	 1909
 775	 1910
 776	 1906
 776	 1907
 776	 1908
 776	 1909
 776	 1910
 777	 1907
 777	 1908
 777	 1909
 777	 1910
 778	 1907
 778	 1908
 778	 1909
 778	 1910
 778	 1911
 778	 1912
 778	 1913
 778	 1914
 779	 1907
 779	 1908
 779	 1909
 779	 1910
 779	 1911
 779	 1912
 779	 1913
 779	 1914
 779	 1915
 780	 1908
 780	 1909
 780	 1910
 780	 1911
 780	 1912
 780	 1913
 780	 1914
 780	 1915
 781	 1906
 781	 1907
 781	 1908
 781	 1909
 781	 1910
 781	 1911
 781	 1912
 781	 1913
 781	 1914
 781	 1915
 782	 1902
 782	 1903
 782	 1904
 782	 1905
 782	 1906
 782	 1907
 782	 1908
 782	 1909
 782	 1910
 782	 1911
 782	 1912
 782	 1913
 782	 1914
 782	 1915
 783	 1899
 783	 1900
 783	 1901
 783	 1902
 783	 1903
 783	 1904
 783	 1905
 783	 1906
 783	 1907
 783	 1908
 783	 1909
 783	 1910
 783	 1911
 783	 1912
 783	 1913
 783	 1914
 784	 1897
 784	 1898
 784	 1899
 784	 1900
 784	 1901
 784	 1902
 784	 1903
 784	 1904
 784	 1905
 784	 1906
 784	 1907
 784	 1908
 784	 1909
 784	 1910
 785	 1895
 785	 1896
 785	 1897
 785	 1898
 785	 1899
 785	 1900
 785	 1901
 785	 1902
 785	 1903
 785	 1904
 785	 1905
 786	 1888
 786	 1889
 786	 1890
 786	 1891
 786	 1892
 786	 1893
 786	 1894
 786	 1895
 786	 1896
 786	 1897
 786	 1898
 786	 1899
 786	 1900
 786	 1901
 787	 1882
 787	 1883
 787	 1884
 787	 1885
 787	 1886
 787	 1887
 787	 1888
 787	 1889
 787	 1890
 787	 1891
 787	 1892
 787	 1893
 787	 1894
 787	 1895
 787	 1896
 787	 1897
 787	 1898
 787	 1899
 787	 1900
 788	 1879
 788	 1880
 788	 1881
 788	 1882
 788	 1883
 788	 1884
 788	 1885
 788	 1886
 788	 1887
 788	 1888
 788	 1889
 788	 1890
 788	 1891
 788	 1892
 788	 1893
 788	 1894
 788	 1895
 788	 1896
 788	 1897
 788	 1898
 788	 1899
 789	 1877
 789	 1878
 789	 1879
 789	 1880
 789	 1881
 789	 1882
 789	 1883
 789	 1884
 789	 1885
 789	 1886
 789	 1887
 789	 1888
 789	 1889
 789	 1890
 789	 1891
 789	 1892
 789	 1893
 789	 1894
 790	 1875
 790	 1876
 790	 1877
 790	 1878
 790	 1879
 790	 1880
 790	 1881
 790	 1882
 790	 1883
 790	 1884
 790	 1885
 790	 1886
 790	 1887
 791	 1870
 791	 1871
 791	 1872
 791	 1873
 791	 1874
 791	 1875
 791	 1876
 791	 1877
 791	 1878
 791	 1879
 791	 1880
 791	 1881
 791	 1882
 792	 1866
 792	 1867
 792	 1868
 792	 1869
 792	 1870
 792	 1871
 792	 1872
 792	 1873
 792	 1874
 792	 1875
 792	 1876
 792	 1877
 792	 1878
 792	 1879
 793	 1864
 793	 1865
 793	 1866
 793	 1867
 793	 1868
 793	 1869
 793	 1870
 793	 1871
 793	 1872
 793	 1873
 793	 1874
 793	 1875
 793	 1876
 793	 1877
 794	 1862
 794	 1863
 794	 1864
 794	 1865
 794	 1866
 794	 1867
 794	 1868
 794	 1869
 794	 1870
 794	 1871
 794	 1872
 794	 1873
 794	 1874
 794	 1875
 795	 1861
 795	 1862
 795	 1863
 795	 1864
 795	 1865
 795	 1866
 795	 1867
 795	 1868
 795	 1869
 795	 1870
 795	 1871
 795	 1872
 795	 1873
 796	 1865
 796	 1866
 796	 1867
 796	 1868
 796	 1869
 796	 1870
 796	 1871
 796	 1872
 796	 1873
 796	 1874
 797	 1869
 797	 1870
 797	 1871
 797	 1872
 797	 1873
 797	 1874
 798	 1870
 798	 1871
 798	 1872
 798	 1873
 798	 1874
 798	 1875
 799	 1871
 799	 1872
 799	 1873
 799	 1874
 799	 1875
 799	 1876
 799	 1877
 800	 1864
 800	 1865
 800	 1866
 800	 1867
 800	 1868
 800	 1869
 800	 1870
 800	 1871
 800	 1872
 800	 1873
 800	 1874
 800	 1875
 800	 1876
 800	 1877
 800	 1878
 800	 1879
 801	 1860
 801	 1861
 801	 1862
 801	 1863
 801	 1864
 801	 1865
 801	 1866
 801	 1867
 801	 1868
 801	 1869
 801	 1870
 801	 1871
 801	 1872
 801	 1873
 801	 1874
 801	 1875
 801	 1876
 801	 1877
 801	 1878
 801	 1879
 801	 1880
 801	 1881
 801	 1882
 801	 1883
 801	 1884
 801	 1885
 801	 1886
 801	 1887
 801	 1888
 801	 1889
 801	 1890
 801	 1891
 801	 1892
 801	 1893
 801	 1894
 801	 1895
 802	 1862
 802	 1863
 802	 1864
 802	 1865
 802	 1866
 802	 1867
 802	 1868
 802	 1869
 802	 1870
 802	 1871
 802	 1872
 802	 1873
 802	 1874
 802	 1875
 802	 1876
 802	 1877
 802	 1878
 802	 1879
 802	 1880
 802	 1881
 802	 1882
 802	 1883
 802	 1884
 802	 1885
 802	 1886
 802	 1887
 802	 1888
 802	 1889
 802	 1890
 802	 1891
 802	 1892
 802	 1893
 802	 1894
 802	 1895
 802	 1896
 802	 1897
 802	 1898
 802	 1899
 802	 1900
 802	 1901
 802	 1902
 802	 1903
 802	 1904
 802	 1905
 802	 1906
 802	 1907
 802	 1908
 802	 1909
 802	 1910
 803	 1868
 803	 1869
 803	 1870
 803	 1871
 803	 1872
 803	 1873
 803	 1874
 803	 1875
 803	 1876
 803	 1877
 803	 1878
 803	 1879
 803	 1880
 803	 1881
 803	 1882
 803	 1883
 803	 1884
 803	 1885
 803	 1886
 803	 1887
 803	 1888
 803	 1889
 803	 1890
 803	 1891
 803	 1892
 803	 1893
 803	 1894
 803	 1895
 803	 1896
 803	 1897
 803	 1898
 803	 1899
 803	 1900
 803	 1901
 803	 1902
 803	 1903
 803	 1904
 803	 1905
 803	 1906
 803	 1907
 803	 1908
 803	 1909
 803	 1910
 804	 1874
 804	 1875
 804	 1876
 804	 1877
 804	 1878
 804	 1879
 804	 1880
 804	 1881
 804	 1882
 804	 1883
 804	 1884
 804	 1885
 804	 1886
 804	 1887
 804	 1888
 804	 1889
 804	 1890
 804	 1891
 804	 1892
 804	 1893
 804	 1894
 804	 1895
 804	 1896
 804	 1897
 804	 1898
 804	 1899
 804	 1900
 804	 1901
 804	 1902
 804	 1903
 804	 1904
 804	 1905
 804	 1906
 804	 1907
 804	 1908
 804	 1909
 804	 1910
 805	 1886
 805	 1887
 805	 1888
 805	 1889
 805	 1890
 805	 1891
 805	 1892
 805	 1893
 805	 1894
 805	 1895
 805	 1896
 805	 1897
 805	 1898
 805	 1899
 805	 1900
 805	 1901
 805	 1902
 805	 1903
 805	 1904
 805	 1905
 805	 1906
 805	 1907
 805	 1908
 805	 1909
 805	 1910
 806	 1882
 806	 1883
 806	 1884
 806	 1885
 806	 1886
 806	 1887
 806	 1888
 806	 1889
 806	 1890
 806	 1891
 806	 1892
 806	 1893
 806	 1894
 806	 1895
 806	 1896
 806	 1897
 806	 1898
 806	 1899
 806	 1900
 806	 1901
 806	 1902
 806	 1903
 806	 1904
 806	 1905
 806	 1906
 806	 1907
 806	 1908
 807	 1886
 807	 1887
 807	 1888
 807	 1889
 807	 1890
 807	 1891
 807	 1892
 807	 1893
 807	 1894
 807	 1895
 807	 1896
 807	 1897
 807	 1898
 807	 1899
 807	 1900
 807	 1901
 807	 1902
 807	 1903
 807	 1904
 807	 1905
 807	 1906
 807	 1907
 807	 1908
 808	 1898
 808	 1899
 808	 1900
 808	 1901
 808	 1902
 808	 1903
 808	 1904
 808	 1905
 808	 1906
 808	 1907
 808	 1908
 808	 1909
 809	 1900
 809	 1901
 809	 1902
 809	 1903
 809	 1904
 809	 1905
 809	 1906
 809	 1907
 809	 1908
 810	 1900
 810	 1901
 810	 1902
 810	 1903
 810	 1904
 810	 1905
 810	 1906
 810	 1907
 810	 1908
 810	 1909
 810	 1910
 810	 1911
 811	 1898
 811	 1899
 811	 1900
 811	 1901
 811	 1902
 811	 1903
 811	 1904
 811	 1905
 811	 1906
 811	 1907
 811	 1908
 811	 1909
 812	 1897
 812	 1898
 812	 1899
 812	 1900
 812	 1901
 812	 1902
 812	 1903
 812	 1904
 812	 1905
 813	 1897
 813	 1898
 813	 1899
 813	 1900
 813	 1901
 813	 1902
 814	 1897
 814	 1898
 814	 1899
 814	 1900
 815	 1897
 815	 1898
 815	 1899
 815	 1900
 815	 1901
 815	 1902
 815	 1903
 816	 1897
 816	 1898
 816	 1899
 816	 1900
 816	 1901
 816	 1902
 816	 1903
 816	 1904
 816	 1905
 816	 1906
 816	 1907
 817	 1897
 817	 1898
 817	 1899
 817	 1900
 817	 1901
 817	 1902
 817	 1903
 817	 1904
 817	 1905
 817	 1906
 817	 1907
 817	 1908
 817	 1909
 818	 1899
 818	 1900
 818	 1901
 818	 1902
 818	 1903
 818	 1904
 818	 1905
 818	 1906
 818	 1907
 818	 1908
 818	 1909
 818	 1910
 818	 1911
 819	 1904
 819	 1905
 819	 1906
 819	 1907
 819	 1908
 819	 1909
 819	 1910
 819	 1911
 819	 1912
 820	 1903
 820	 1904
 820	 1905
 820	 1906
 820	 1907
 820	 1908
 820	 1909
 820	 1910
 820	 1911
 821	 1902
 821	 1903
 821	 1904
 821	 1905
 821	 1906
 821	 1907
 821	 1908
 821	 1909
 821	 1910
 821	 1911
 821	 1912
 821	 1913
 822	 1904
 822	 1905
 822	 1906
 822	 1907
 822	 1908
 822	 1909
 822	 1910
 822	 1911
 822	 1912
 822	 1913
 822	 1914
 822	 1915
 822	 1916
 822	 1917
 823	 1905
 823	 1906
 823	 1907
 823	 1908
 823	 1909
 823	 1910
 823	 1911
 823	 1912
 823	 1913
 823	 1914
 823	 1915
 823	 1916
 823	 1917
 823	 1918
 823	 1919
 824	 1909
 824	 1910
 824	 1911
 824	 1912
 824	 1913
 824	 1914
 824	 1915
 824	 1916
 824	 1917
 824	 1918
 824	 1919
 824	 1920
 825	 1914
 825	 1915
 825	 1916
 825	 1917
 825	 1918
 825	 1919
 825	 1920
 825	 1921
 825	 1922
 826	 1916
 826	 1917
 826	 1918
 826	 1919
 826	 1920
 826	 1921
 826	 1922
 826	 1923
 826	 1924
 826	 1925
 826	 1926
 827	 1917
 827	 1918
 827	 1919
 827	 1920
 827	 1921
 827	 1922
 827	 1923
 827	 1924
 827	 1925
 827	 1926
 827	 1927
 827	 1928
 827	 1929
 827	 1930
 828	 1920
 828	 1921
 828	 1922
 828	 1923
 828	 1924
 828	 1925
 828	 1926
 828	 1927
 828	 1928
 828	 1929
 828	 1930
 828	 1931
 829	 1923
 829	 1924
 829	 1925
 829	 1926
 829	 1927
 829	 1928
 829	 1929
 829	 1930
 829	 1931
 829	 1932
 830	 1927
 830	 1928
 830	 1929
 830	 1930
 830	 1931
 830	 1932
 830	 1933
 830	 1934
 831	 1928
 831	 1929
 831	 1930
 831	 1931
 831	 1932
 831	 1933
 831	 1934
 831	 1935
 831	 1936
 832	 1930
 832	 1931
 832	 1932
 832	 1933
 832	 1934
 832	 1935
 832	 1936
 833	 1932
 833	 1933
 833	 1934
 833	 1935
 833	 1936
 834	 1933
 834	 1934
 834	 1935
 834	 1936
 835	 1932
 835	 1933
 835	 1934
 835	 1935
 835	 1936
 836	 1932
 836	 1933
 836	 1934
 836	 1935
 836	 1936
 837	 1932
 837	 1933
 837	 1934
 837	 1935
 837	 1936
 838	 1932
 838	 1933
 838	 1934
 838	 1935
 839	 1932
 839	 1933
 839	 1934
 839	 1935
 839	 1936
 840	 1932
 840	 1933
 840	 1934
 840	 1935
 840	 1936
 841	 1932
 841	 1933
 841	 1934
 841	 1935
 841	 1936
 842	 1933
 842	 1934
 842	 1935
 842	 1936
 842	 1937
 843	 1933
 843	 1934
 843	 1935
 843	 1936
 843	 1937
 843	 1938
 843	 1939
 844	 1933
 844	 1934
 844	 1935
 844	 1936
 844	 1937
 844	 1938
 844	 1939
 844	 1940
 844	 1941
 845	 1935
 845	 1936
 845	 1937
 845	 1938
 845	 1939
 845	 1940
 845	 1941
 845	 1942
 845	 1943
 846	 1936
 846	 1937
 846	 1938
 846	 1939
 846	 1940
 846	 1941
 846	 1942
 846	 1943
 847	 1938
 847	 1939
 847	 1940
 847	 1941
 847	 1942
 847	 1943
 847	 1944
 848	 1940
 848	 1941
 848	 1942
 848	 1943
 848	 1944
 848	 1945
 849	 1941
 849	 1942
 849	 1943
 849	 1944
 849	 1945
 849	 1946
 849	 1947
 850	 1942
 850	 1943
 850	 1944
 850	 1945
 850	 1946
 850	 1947
 850	 1948
 850	 1949
 851	 1943
 851	 1944
 851	 1945
 851	 1946
 851	 1947
 851	 1948
 851	 1949
 851	 1950
 851	 1951
 852	 1945
 852	 1946
 852	 1947
 852	 1948
 852	 1949
 852	 1950
 852	 1951
 852	 1952
 852	 1953
 853	 1947
 853	 1948
 853	 1949
 853	 1950
 853	 1951
 853	 1952
 853	 1953
 853	 1954
 854	 1949
 854	 1950
 854	 1951
 854	 1952
 854	 1953
 854	 1954
 855	 1949
 855	 1950
 855	 1951
 855	 1952
 855	 1953
 855	 1954
 856	 1950
 856	 1951
 856	 1952
 856	 1953
 856	 1954
 856	 1955
 857	 1951
 857	 1952
 857	 1953
 857	 1954
 857	 1955
 857	 1956
 857	 1957
 858	 1952
 858	 1953
 858	 1954
 858	 1955
 858	 1956
 858	 1957
 859	 1953
 859	 1954
 859	 1955
 859	 1956
 859	 1957
 860	 1954
 860	 1955
 860	 1956
 860	 1957
 861	 1954
 861	 1955
 861	 1956
 861	 1957
 862	 1954
 862	 1955
 862	 1956
 862	 1957
 863	 1954
 863	 1955
 863	 1956
 863	 1957
 864	 1954
 864	 1955
 864	 1956
 864	 1957
 864	 1958
 865	 1954
 865	 1955
 865	 1956
 865	 1957
 865	 1958
 866	 1953
 866	 1954
 866	 1955
 866	 1956
 866	 1957
 866	 1958
 867	 1952
 867	 1953
 867	 1954
 867	 1955
 867	 1956
 867	 1957
 868	 1952
 868	 1953
 868	 1954
 868	 1955
 868	 1956
 869	 1952
 869	 1953
 869	 1954
 869	 1955
 870	 1952
 870	 1953
 870	 1954
 870	 1955
 871	 1952
 871	 1953
 871	 1954
 871	 1955
 871	 1956
 871	 1957
 872	 1952
 872	 1953
 872	 1954
 872	 1955
 872	 1956
 872	 1957
 873	 1953
 873	 1954
 873	 1955
 873	 1956
 873	 1957
 874	 1954
 874	 1955
 874	 1956
 874	 1957
 875	 1953
 875	 1954
 875	 1955
 875	 1956
 875	 1957
 876	 1952
 876	 1953
 876	 1954
 876	 1955
 876	 1956
 876	 1957
 877	 1951
 877	 1952
 877	 1953
 877	 1954
 877	 1955
 877	 1956
 878	 1950
 878	 1951
 878	 1952
 878	 1953
 878	 1954
 878	 1955
 879	 1950
 879	 1951
 879	 1952
 879	 1953
 879	 1954
 879	 1955
 880	 1951
 880	 1952
 880	 1953
 880	 1954
 880	 1955
 880	 1956
 881	 1952
 881	 1953
 881	 1954
 881	 1955
 881	 1956
 881	 1957
 882	 1953
 882	 1954
 882	 1955
 882	 1956
 882	 1957
 883	 1952
 883	 1953
 883	 1954
 883	 1955
 883	 1956
 883	 1957
 884	 1951
 884	 1952
 884	 1953
 884	 1954
 884	 1955
 884	 1956
 885	 1951
 885	 1952
 885	 1953
 885	 1954
 885	 1955
 886	 1951
 886	 1952
 886	 1953
 886	 1954
 887	 1951
 887	 1952
 887	 1953
 888	 1951
 888	 1952
 888	 1953
 889	 1951
 889	 1952
 889	 1953
 890	 1951
 890	 1952
 890	 1953
 891	 1951
 891	 1952
 891	 1953
 892	 1951
 892	 1952
 892	 1953
 893	 1951
 893	 1952
 893	 1953
 894	 1951
 894	 1952
 894	 1953
 895	 1951
 895	 1952
 895	 1953
 896	 1951
 896	 1952
 896	 1953
 897	 1951
 897	 1952
 897	 1953
 898	 1951
 898	 1952
 898	 1953
 899	 1950
 899	 1951
 899	 1952
 899	 1953
 900	 1949
 900	 1950
 900	 1951
 900	 1952
 900	 1953
 901	 1948
 901	 1949
 901	 1950
 901	 1951
 901	 1952
 901	 1953
 902	 1947
 902	 1948
 902	 1949
 902	 1950
 902	 1951
 902	 1952
 903	 1945
 903	 1946
 903	 1947
 903	 1948
 903	 1949
 903	 1950
 903	 1951
 904	 1945
 904	 1946
 904	 1947
 904	 1948
 904	 1949
 904	 1950
 905	 1945
 905	 1946
 905	 1947
 905	 1948
 905	 1949
 906	 1943
 906	 1944
 906	 1945
 906	 1946
 906	 1947
 906	 1948
 907	 1942
 907	 1943
 907	 1944
 907	 1945
 907	 1946
 907	 1947
 907	 1948
 908	 1942
 908	 1943
 908	 1944
 908	 1945
 908	 1946
 908	 1947
 908	 1948
 909	 1942
 909	 1943
 909	 1944
 909	 1945
 909	 1946
 910	 1941
 910	 1942
 910	 1943
 910	 1944
 910	 1945
 911	 1940
 911	 1941
 911	 1942
 911	 1943
 911	 1944
 911	 1945
 912	 1939
 912	 1940
 912	 1941
 912	 1942
 912	 1943
 912	 1944
 913	 1936
 913	 1937
 913	 1938
 913	 1939
 913	 1940
 913	 1941
 913	 1942
 913	 1943
 914	 1935
 914	 1936
 914	 1937
 914	 1938
 914	 1939
 914	 1940
 914	 1941
 914	 1942
 915	 1935
 915	 1936
 915	 1937
 915	 1938
 915	 1939
 915	 1940
 915	 1941
 916	 1935
 916	 1936
 916	 1937
 916	 1938
 916	 1939
 917	 1934
 917	 1935
 917	 1936
 917	 1937
 917	 1938
 918	 1934
 918	 1935
 918	 1936
 918	 1937
 918	 1938
 919	 1933
 919	 1934
 919	 1935
 919	 1936
 919	 1937
 920	 1930
 920	 1931
 920	 1932
 920	 1933
 920	 1934
 920	 1935
 920	 1936
 921	 1928
 921	 1929
 921	 1930
 921	 1931
 921	 1932
 921	 1933
 921	 1934
 921	 1935
 922	 1928
 922	 1929
 922	 1930
 922	 1931
 922	 1932
 922	 1933
 922	 1934
 923	 1928
 923	 1929
 923	 1930
 923	 1931
 923	 1932
 923	 1933
 924	 1926
 924	 1927
 924	 1928
 924	 1929
 924	 1930
 924	 1931
 925	 1925
 925	 1926
 925	 1927
 925	 1928
 925	 1929
 925	 1930
 925	 1931
 926	 1924
 926	 1925
 926	 1926
 926	 1927
 926	 1928
 926	 1929
 926	 1930
 926	 1931
 927	 1922
 927	 1923
 927	 1924
 927	 1925
 927	 1926
 927	 1927
 927	 1928
 928	 1920
 928	 1921
 928	 1922
 928	 1923
 928	 1924
 928	 1925
 928	 1926
 928	 1927
 929	 1919
 929	 1920
 929	 1921
 929	 1922
 929	 1923
 929	 1924
 929	 1925
 929	 1926
 930	 1918
 930	 1919
 930	 1920
 930	 1921
 930	 1922
 930	 1923
 930	 1924
 930	 1925
 931	 1917
 931	 1918
 931	 1919
 931	 1920
 931	 1921
 931	 1922
 932	 1916
 932	 1917
 932	 1918
 932	 1919
 932	 1920
 932	 1921
 933	 1916
 933	 1917
 933	 1918
 933	 1919
 933	 1920
 933	 1921
 934	 1917
 934	 1918
 934	 1919
 934	 1920
 934	 1921
 934	 1922
 935	 1917
 935	 1918
 935	 1919
 935	 1920
 935	 1921
 935	 1922
 935	 1923
 936	 1916
 936	 1917
 936	 1918
 936	 1919
 936	 1920
 936	 1921
 936	 1922
 936	 1923
 937	 1915
 937	 1916
 937	 1917
 937	 1918
 937	 1919
 937	 1920
 937	 1921
 938	 1911
 938	 1912
 938	 1913
 938	 1914
 938	 1915
 938	 1916
 938	 1917
 938	 1918
 938	 1919
 939	 1910
 939	 1911
 939	 1912
 939	 1913
 939	 1914
 939	 1915
 939	 1916
 939	 1917
 939	 1918
 940	 1909
 940	 1910
 940	 1911
 940	 1912
 940	 1913
 940	 1914
 940	 1915
 940	 1916
 940	 1917
 941	 1908
 941	 1909
 941	 1910
 941	 1911
 941	 1912
 941	 1913
 941	 1914
 942	 1907
 942	 1908
 942	 1909
 942	 1910
 942	 1911
 942	 1912
 943	 1906
 943	 1907
 943	 1908
 943	 1909
 943	 1910
 943	 1911
 943	 1912
 944	 1908
 944	 1909
 944	 1910
 944	 1911
 944	 1912
 945	 1908
 945	 1909
 945	 1910
 945	 1911
 945	 1912
 946	 1907
 946	 1908
 946	 1909
 946	 1910
 946	 1911
 946	 1912
 947	 1907
 947	 1908
 947	 1909
 947	 1910
 947	 1911
 947	 1912
 948	 1907
 948	 1908
 948	 1909
 948	 1910
 949	 1907
 949	 1908
 949	 1909
 949	 1910
 949	 1911
 950	 1907
 950	 1908
 950	 1909
 950	 1910
 950	 1911
 950	 1912
 951	 1908
 951	 1909
 951	 1910
 951	 1911
 951	 1912
 951	 1913
 952	 1909
 952	 1910
 952	 1911
 952	 1912
 952	 1913
 952	 1914
 953	 1910
 953	 1911
 953	 1912
 953	 1913
 953	 1914
 954	 1911
 954	 1912
 954	 1913
 954	 1914
 955	 1911
 955	 1912
 955	 1913
 955	 1914
 956	 1911
 956	 1912
 956	 1913
 956	 1914
 956	 1915
 957	 1911
 957	 1912
 957	 1913
 957	 1914
 957	 1915
 958	 1911
 958	 1912
 958	 1913
 958	 1914
 958	 1915
 959	 1912
 959	 1913
 959	 1914
 959	 1915
 960	 1912
 960	 1913
 960	 1914
 960	 1915
 960	 1916
 961	 1912
 961	 1913
 961	 1914
 961	 1915
 961	 1916
 961	 1917
 962	 1913
 962	 1914
 962	 1915
 962	 1916
 962	 1917
 962	 1918
 963	 1914
 963	 1915
 963	 1916
 963	 1917
 963	 1918
 963	 1919
 963	 1920
 964	 1915
 964	 1916
 964	 1917
 964	 1918
 964	 1919
 964	 1920
 965	 1916
 965	 1917
 965	 1918
 965	 1919
 965	 1920
 966	 1918
 966	 1919
 966	 1920
 967	 1918
 967	 1919
 967	 1920
 967	 1921
 968	 1918
 968	 1919
 968	 1920
 968	 1921
 968	 1922
 969	 1918
 969	 1919
 969	 1920
 969	 1921
 969	 1922
 969	 1923
 970	 1919
 970	 1920
 970	 1921
 970	 1922
 970	 1923
 970	 1924
 971	 1920
 971	 1921
 971	 1922
 971	 1923
 971	 1924
 972	 1921
 972	 1922
 972	 1923
 972	 1924
 973	 1921
 973	 1922
 973	 1923
 973	 1924
 974	 1921
 974	 1922
 974	 1923
 974	 1924
 974	 1925
 975	 1921
 975	 1922
 975	 1923
 975	 1924
 975	 1925
 975	 1926
 976	 1922
 976	 1923
 976	 1924
 976	 1925
 976	 1926
 976	 1927
 977	 1923
 977	 1924
 977	 1925
 977	 1926
 977	 1927
 977	 1928
 978	 1923
 978	 1924
 978	 1925
 978	 1926
 978	 1927
 978	 1928
 979	 1923
 979	 1924
 979	 1925
 979	 1926
 979	 1927
 979	 1928
 980	 1924
 980	 1925
 980	 1926
 980	 1927
 980	 1928
 980	 1929
 981	 1925
 981	 1926
 981	 1927
 981	 1928
 981	 1929
 981	 1930
 982	 1926
 982	 1927
 982	 1928
 982	 1929
 982	 1930
 982	 1931
 983	 1927
 983	 1928
 983	 1929
 983	 1930
 983	 1931
 983	 1932
 984	 1928
 984	 1929
 984	 1930
 984	 1931
 984	 1932
 984	 1933
 985	 1929
 985	 1930
 985	 1931
 985	 1932
 985	 1933
 985	 1934
 986	 1930
 986	 1931
 986	 1932
 986	 1933
 986	 1934
 986	 1935
 987	 1931
 987	 1932
 987	 1933
 987	 1934
 987	 1935
 987	 1936
 988	 1932
 988	 1933
 988	 1934
 988	 1935
 988	 1936
 988	 1937
 989	 1932
 989	 1933
 989	 1934
 989	 1935
 989	 1936
 989	 1937
 990	 1932
 990	 1933
 990	 1934
 990	 1935
 990	 1936
 991	 1932
 991	 1933
 991	 1934
 991	 1935
 992	 1932
 992	 1933
 992	 1934
 992	 1935
 992	 1936
 993	 1932
 993	 1933
 993	 1934
 993	 1935
 993	 1936
 994	 1933
 994	 1934
 994	 1935
 994	 1936
 995	 1933
 995	 1934
 995	 1935
 995	 1936
 995	 1937
 996	 1933
 996	 1934
 996	 1935
 996	 1936
 996	 1937
 996	 1938
 997	 1933
 997	 1934
 997	 1935
 997	 1936
 997	 1937
 997	 1938
 998	 1935
 998	 1936
 998	 1937
 998	 1938
 999	 1934
 999	 1935
 999	 1936
 999	 1937
 999	 1938
 1000	 1933
 1000	 1934
 1000	 1935
 1000	 1936
 1000	 1937
 1000	 1938
 1001	 1934
 1001	 1935
 1001	 1936
 1001	 1937
 1001	 1938
 1001	 1939
 1002	 1935
 1002	 1936
 1002	 1937
 1002	 1938
 1002	 1939
 1003	 1936
 1003	 1937
 1003	 1938
 1003	 1939
 1004	 1937
 1004	 1938
 1004	 1939
 1005	 1937
 1005	 1938
 1005	 1939
 1006	 1937
 1006	 1938
 1006	 1939
 1007	 1937
 1007	 1938
 1007	 1939
 1008	 1937
 1008	 1938
 1008	 1939
 1009	 1937
 1009	 1938
 1009	 1939
 1010	 1937
 1010	 1938
 1010	 1939
 1011	 1937
 1011	 1938
 1011	 1939
 1012	 1937
 1012	 1938
 1012	 1939
 1013	 1935
 1013	 1936
 1013	 1937
 1013	 1938
 1013	 1939
 1014	 1935
 1014	 1936
 1014	 1937
 1014	 1938
 1014	 1939
 1015	 1935
 1015	 1936
 1015	 1937
 1015	 1938
 1015	 1939
 1016	 1935
 1016	 1936
 1016	 1937
 1016	 1938
 1017	 1935
 1017	 1936
 1017	 1937
 1017	 1938
 1017	 1939
 1018	 1935
 1018	 1936
 1018	 1937
 1018	 1938
 1018	 1939
 1019	 1936
 1019	 1937
 1019	 1938
 1019	 1939
 1020	 1935
 1020	 1936
 1020	 1937
 1020	 1938
 1020	 1939
 1021	 1935
 1021	 1936
 1021	 1937
 1021	 1938
 1021	 1939
 1022	 1935
 1022	 1936
 1022	 1937
 1022	 1938
 1022	 1939
 1023	 1935
 1023	 1936
 1023	 1937
 1023	 1938
 1024	 1935
 1024	 1936
 1024	 1937
 1024	 1938
 1024	 1939
 1025	 1935
 1025	 1936
 1025	 1937
 1025	 1938
 1025	 1939
 1026	 1936
 1026	 1937
 1026	 1938
 1026	 1939
 1027	 1937
 1027	 1938
 1027	 1939
 1028	 1937
 1028	 1938
 1028	 1939
 1029	 1937
 1029	 1938
 1029	 1939
 1030	 1936
 1030	 1937
 1030	 1938
 1030	 1939
 1031	 1935
 1031	 1936
 1031	 1937
 1031	 1938
 1031	 1939
 1032	 1935
 1032	 1936
 1032	 1937
 1032	 1938
 1032	 1939
 1033	 1935
 1033	 1936
 1033	 1937
 1033	 1938
 1034	 1935
 1034	 1936
 1034	 1937
 1034	 1938
 1034	 1939
 1035	 1935
 1035	 1936
 1035	 1937
 1035	 1938
 1035	 1939
 1036	 1935
 1036	 1936
 1036	 1937
 1036	 1938
 1036	 1939
 1037	 1937
 1037	 1938
 1037	 1939
 1038	 1937
 1038	 1938
 1038	 1939
 1039	 1937
 1039	 1938
 1039	 1939
 1040	 1937
 1040	 1938
 1040	 1939
 1041	 1937
 1041	 1938
 1041	 1939
 1041	 1940
 1041	 1941
 1042	 1937
 1042	 1938
 1042	 1939
 1042	 1940
 1042	 1941
 1043	 1937
 1043	 1938
 1043	 1939
 1043	 1940
 1043	 1941
 1044	 1938
 1044	 1939
 1044	 1940
 1044	 1941
 1045	 1937
 1045	 1938
 1045	 1939
 1045	 1940
 1045	 1941
 1046	 1937
 1046	 1938
 1046	 1939
 1046	 1940
 1046	 1941
 1047	 1937
 1047	 1938
 1047	 1939
 1047	 1940
 1047	 1941
 1048	 1937
 1048	 1938
 1048	 1939
 1049	 1937
 1049	 1938
 1049	 1939
 1050	 1937
 1050	 1938
 1050	 1939
 1051	 1937
 1051	 1938
 1051	 1939
 1052	 1937
 1052	 1938
 1052	 1939
 1053	 1937
 1053	 1938
 1053	 1939
 1054	 1937
 1054	 1938
 1054	 1939
 1055	 1934
 1055	 1935
 1055	 1936
 1055	 1937
 1055	 1938
 1055	 1939
 1056	 1932
 1056	 1933
 1056	 1934
 1056	 1935
 1056	 1936
 1056	 1937
 1056	 1938
 1056	 1939
 1057	 1931
 1057	 1932
 1057	 1933
 1057	 1934
 1057	 1935
 1057	 1936
 1057	 1937
 1057	 1938
 1057	 1939
 1058	 1930
 1058	 1931
 1058	 1932
 1058	 1933
 1058	 1934
 1058	 1935
 1058	 1936
 1058	 1937
 1058	 1938
 1059	 1929
 1059	 1930
 1059	 1931
 1059	 1932
 1059	 1933
 1059	 1934
 1060	 1928
 1060	 1929
 1060	 1930
 1060	 1931
 1060	 1932
 1060	 1933
 1061	 1927
 1061	 1928
 1061	 1929
 1061	 1930
 1061	 1931
 1061	 1932
 1062	 1926
 1062	 1927
 1062	 1928
 1062	 1929
 1062	 1930
 1062	 1931
 1063	 1925
 1063	 1926
 1063	 1927
 1063	 1928
 1063	 1929
 1063	 1930
 1063	 1931
 1064	 1925
 1064	 1926
 1064	 1927
 1064	 1928
 1064	 1929
 1064	 1930
 1064	 1931
 1065	 1927
 1065	 1928
 1065	 1929
 1065	 1930
 1065	 1931
 1066	 1928
 1066	 1929
 1066	 1930
 1066	 1931
 1066	 1932
 1067	 1928
 1067	 1929
 1067	 1930
 1067	 1931
 1067	 1932
 1067	 1933
 1068	 1928
 1068	 1929
 1068	 1930
 1068	 1931
 1068	 1932
 1068	 1933
 1069	 1930
 1069	 1931
 1069	 1932
 1069	 1933
 1070	 1930
 1070	 1931
 1070	 1932
 1070	 1933
 1070	 1934
 1070	 1935
 1071	 1930
 1071	 1931
 1071	 1932
 1071	 1933
 1071	 1934
 1071	 1935
 1071	 1936
 1072	 1931
 1072	 1932
 1072	 1933
 1072	 1934
 1072	 1935
 1072	 1936
 1072	 1937
 1073	 1933
 1073	 1934
 1073	 1935
 1073	 1936
 1073	 1937
 1073	 1938
 1074	 1932
 1074	 1933
 1074	 1934
 1074	 1935
 1074	 1936
 1074	 1937
 1074	 1938
 1074	 1939
 1075	 1931
 1075	 1932
 1075	 1933
 1075	 1934
 1075	 1935
 1075	 1936
 1075	 1937
 1075	 1938
 1076	 1930
 1076	 1931
 1076	 1932
 1076	 1933
 1076	 1934
 1076	 1935
 1077	 1929
 1077	 1930
 1077	 1931
 1077	 1932
 1077	 1933
 1077	 1934
 1078	 1929
 1078	 1930
 1078	 1931
 1078	 1932
 1078	 1933
 1078	 1934
 1079	 1929
 1079	 1930
 1079	 1931
 1079	 1932
 1079	 1933
 1079	 1934
 1080	 1928
 1080	 1929
 1080	 1930
 1080	 1931
 1080	 1932
 1080	 1933
 1081	 1927
 1081	 1928
 1081	 1929
 1081	 1930
 1081	 1931
 1081	 1932
 1081	 1933
 1082	 1928
 1082	 1929
 1082	 1930
 1082	 1931
 1082	 1932
 1082	 1933
 1083	 1930
 1083	 1931
 1083	 1932
 1083	 1933
 1084	 1929
 1084	 1930
 1084	 1931
 1084	 1932
 1084	 1933
 1085	 1928
 1085	 1929
 1085	 1930
 1085	 1931
 1085	 1932
 1085	 1933
 1086	 1927
 1086	 1928
 1086	 1929
 1086	 1930
 1086	 1931
 1086	 1932
 1087	 1927
 1087	 1928
 1087	 1929
 1087	 1930
 1087	 1931
 1088	 1927
 1088	 1928
 1088	 1929
 1088	 1930
 1088	 1931
 1088	 1932
 1088	 1933
 1088	 1934
 1089	 1927
 1089	 1928
 1089	 1929
 1089	 1930
 1089	 1931
 1089	 1932
 1089	 1933
 1090	 1928
 1090	 1929
 1090	 1930
 1090	 1931
 1090	 1932
 1090	 1933
 1091	 1928
 1091	 1929
 1091	 1930
 1091	 1931
 1091	 1932
 1091	 1933
 1092	 1928
 1092	 1929
 1092	 1930
 1092	 1931
 1092	 1932
 1092	 1933
 1092	 1934
 1093	 1929
 1093	 1930
 1093	 1931
 1093	 1932
 1093	 1933
 1093	 1934
 1093	 1935
 1094	 1930
 1094	 1931
 1094	 1932
 1094	 1933
 1094	 1934
 1094	 1935
 1094	 1936
 1095	 1932
 1095	 1933
 1095	 1934
 1095	 1935
 1096	 1932
 1096	 1933
 1096	 1934
 1096	 1935
 1096	 1936
 1097	 1932
 1097	 1933
 1097	 1934
 1097	 1935
 1097	 1936
 1097	 1937
 1097	 1938
 1098	 1933
 1098	 1934
 1098	 1935
 1098	 1936
 1098	 1937
 1098	 1938
 1098	 1939
 1098	 1940
 1098	 1941
 1099	 1934
 1099	 1935
 1099	 1936
 1099	 1937
 1099	 1938
 1099	 1939
 1099	 1940
 1099	 1941
 1099	 1942
 1100	 1935
 1100	 1936
 1100	 1937
 1100	 1938
 1100	 1939
 1100	 1940
 1100	 1941
 1100	 1942
 1100	 1943
 1101	 1938
 1101	 1939
 1101	 1940
 1101	 1941
 1101	 1942
 1101	 1943
 1101	 1944
 1102	 1940
 1102	 1941
 1102	 1942
 1102	 1943
 1102	 1944
 1102	 1945
 1102	 1946
 1102	 1947
 1103	 1942
 1103	 1943
 1103	 1944
 1103	 1945
 1103	 1946
 1103	 1947
 1103	 1948
 1104	 1942
 1104	 1943
 1104	 1944
 1104	 1945
 1104	 1946
 1104	 1947
 1104	 1948
 1105	 1943
 1105	 1944
 1105	 1945
 1105	 1946
 1105	 1947
 1105	 1948
 1105	 1949
 1106	 1944
 1106	 1945
 1106	 1946
 1106	 1947
 1106	 1948
 1106	 1949
 1106	 1950
 1107	 1944
 1107	 1945
 1107	 1946
 1107	 1947
 1107	 1948
 1107	 1949
 1108	 1943
 1108	 1944
 1108	 1945
 1108	 1946
 1108	 1947
 1109	 1943
 1109	 1944
 1109	 1945
 1109	 1946
 1109	 1947
 1109	 1948
 1110	 1941
 1110	 1942
 1110	 1943
 1110	 1944
 1110	 1945
 1110	 1946
 1110	 1947
 1110	 1948
 1111	 1940
 1111	 1941
 1111	 1942
 1111	 1943
 1111	 1944
 1111	 1945
 1111	 1946
 1111	 1947
 1112	 1941
 1112	 1942
 1112	 1943
 1112	 1944
 1112	 1945
 1112	 1946
 1113	 1941
 1113	 1942
 1113	 1943
 1113	 1944
 1113	 1945
 1113	 1946
 1114	 1940
 1114	 1941
 1114	 1942
 1114	 1943
 1114	 1944
 1114	 1945
 1114	 1946
 1115	 1938
 1115	 1939
 1115	 1940
 1115	 1941
 1115	 1942
 1115	 1943
 1115	 1944
 1115	 1945
 1116	 1936
 1116	 1937
 1116	 1938
 1116	 1939
 1116	 1940
 1116	 1941
 1116	 1942
 1116	 1943
 1116	 1944
 1116	 1945
 1117	 1935
 1117	 1936
 1117	 1937
 1117	 1938
 1117	 1939
 1117	 1940
 1117	 1941
 1117	 1942
 1117	 1943
 1117	 1944
 1117	 1945
 1117	 1946
 1117	 1947
 1118	 1929
 1118	 1930
 1118	 1931
 1118	 1932
 1118	 1933
 1118	 1934
 1118	 1935
 1118	 1936
 1118	 1937
 1118	 1938
 1118	 1939
 1118	 1940
 1118	 1941
 1118	 1942
 1118	 1943
 1118	 1944
 1118	 1945
 1118	 1946
 1119	 1923
 1119	 1924
 1119	 1925
 1119	 1926
 1119	 1927
 1119	 1928
 1119	 1929
 1119	 1930
 1119	 1931
 1119	 1932
 1119	 1933
 1119	 1934
 1119	 1935
 1119	 1936
 1119	 1937
 1119	 1938
 1119	 1939
 1119	 1940
 1119	 1941
 1119	 1942
 1119	 1943
 1120	 1917
 1120	 1918
 1120	 1919
 1120	 1920
 1120	 1921
 1120	 1922
 1120	 1923
 1120	 1924
 1120	 1925
 1120	 1926
 1120	 1927
 1120	 1928
 1120	 1929
 1120	 1930
 1120	 1931
 1120	 1932
 1120	 1933
 1120	 1934
 1120	 1935
 1120	 1936
 1120	 1937
 1120	 1938
 1120	 1939
 1120	 1940
 1120	 1941
 1120	 1942
 1120	 1943
 1120	 1944
 1120	 1945
 1120	 1946
 1120	 1947
 1120	 1948
 1120	 1949
 1120	 1950
 1120	 1951
 1120	 1952
 1120	 1953
 1120	 1954
 1120	 1955
 1120	 1956
 1120	 1957
 1120	 1958
 1120	 1959
 1120	 1960
 1120	 1961
 1120	 1962
 1120	 1963
 1120	 1964
 1120	 1965
 1120	 1966
 1120	 1967
 1120	 1968
 1121	 1920
 1121	 1921
 1121	 1922
 1121	 1923
 1121	 1924
 1121	 1925
 1121	 1926
 1121	 1927
 1121	 1928
 1121	 1929
 1121	 1930
 1121	 1931
 1121	 1932
 1121	 1933
 1121	 1934
 1121	 1935
 1121	 1936
 1121	 1937
 1121	 1938
 1121	 1939
 1121	 1940
 1121	 1941
 1121	 1942
 1121	 1943
 1121	 1944
 1121	 1945
 1121	 1946
 1121	 1947
 1121	 1948
 1121	 1949
 1121	 1950
 1121	 1951
 1121	 1952
 1121	 1953
 1121	 1954
 1121	 1955
 1121	 1956
 1121	 1957
 1121	 1958
 1121	 1959
 1121	 1960
 1121	 1961
 1121	 1962
 1121	 1963
 1121	 1964
 1121	 1965
 1121	 1966
 1121	 1967
 1121	 1968
 1121	 1969
 1121	 1970
 1121	 1971
 1121	 1972
 1121	 1973
 1121	 1974
 1121	 1975
 1121	 1976
 1122	 1932
 1122	 1933
 1122	 1934
 1122	 1935
 1122	 1936
 1122	 1937
 1122	 1938
 1122	 1939
 1122	 1940
 1122	 1941
 1122	 1942
 1122	 1943
 1122	 1944
 1122	 1945
 1122	 1946
 1122	 1947
 1122	 1948
 1122	 1949
 1122	 1950
 1122	 1951
 1122	 1952
 1122	 1953
 1122	 1954
 1122	 1955
 1122	 1956
 1122	 1957
 1122	 1958
 1122	 1959
 1122	 1960
 1122	 1961
 1122	 1962
 1122	 1963
 1122	 1964
 1122	 1965
 1122	 1966
 1122	 1967
 1122	 1968
 1122	 1969
 1122	 1970
 1122	 1971
 1122	 1972
 1123	 1932
 1123	 1933
 1123	 1934
 1123	 1935
 1123	 1936
 1123	 1937
 1123	 1938
 1123	 1939
 1123	 1940
 1123	 1941
 1123	 1942
 1123	 1943
 1123	 1944
 1123	 1945
 1123	 1946
 1123	 1947
 1123	 1948
 1123	 1949
 1123	 1950
 1123	 1951
 1123	 1952
 1123	 1953
 1123	 1954
 1123	 1955
 1123	 1956
 1123	 1957
 1123	 1958
 1123	 1959
 1123	 1960
 1123	 1961
 1123	 1962
 1123	 1963
 1123	 1964
 1123	 1965
 1123	 1966
 1124	 1928
 1124	 1929
 1124	 1930
 1124	 1931
 1124	 1932
 1124	 1933
 1124	 1934
 1124	 1935
 1124	 1936
 1124	 1937
 1124	 1938
 1124	 1939
 1124	 1940
 1124	 1941
 1124	 1942
 1124	 1943
 1124	 1944
 1124	 1945
 1124	 1946
 1124	 1947
 1124	 1948
 1124	 1949
 1124	 1950
 1124	 1951
 1124	 1952
 1124	 1953
 1124	 1954
 1124	 1955
 1124	 1956
 1124	 1957
 1124	 1958
 1124	 1959
 1124	 1960
 1125	 1926
 1125	 1927
 1125	 1928
 1125	 1929
 1125	 1930
 1125	 1931
 1125	 1932
 1125	 1933
 1125	 1934
 1125	 1935
 1125	 1936
 1125	 1937
 1125	 1938
 1125	 1939
 1125	 1940
 1125	 1941
 1125	 1942
 1125	 1943
 1125	 1944
 1125	 1945
 1126	 1931
 1126	 1932
 1126	 1933
 1126	 1934
 1126	 1935
 1126	 1936
