 20	 2367
 20	 2368
 20	 2369
 20	 2370
 21	 2367
 21	 2368
 21	 2369
 21	 2370
 22	 2367
 22	 2368
 22	 2369
 22	 2370
 23	 2367
 23	 2368
 23	 2369
 23	 2370
 24	 2367
 24	 2368
 24	 2369
 24	 2370
 25	 2367
 25	 2368
 25	 2369
 25	 2370
 26	 2314
 26	 2315
 26	 2316
 26	 2317
 26	 2318
 26	 2319
 26	 2320
 26	 2321
 26	 2322
 26	 2323
 26	 2324
 26	 2325
 26	 2326
 26	 2327
 26	 2328
 26	 2329
 26	 2330
 26	 2331
 26	 2332
 26	 2333
 26	 2334
 26	 2335
 26	 2336
 26	 2337
 26	 2338
 26	 2339
 26	 2340
 26	 2341
 26	 2342
 26	 2343
 26	 2344
 26	 2345
 26	 2346
 26	 2347
 26	 2348
 26	 2349
 26	 2350
 26	 2351
 26	 2352
 26	 2353
 26	 2354
 26	 2355
 26	 2356
 26	 2357
 26	 2358
 26	 2359
 26	 2360
 26	 2361
 26	 2362
 26	 2363
 26	 2364
 26	 2365
 26	 2366
 26	 2367
 26	 2368
 26	 2369
 26	 2370
 27	 2214
 27	 2215
 27	 2216
 27	 2217
 27	 2218
 27	 2219
 27	 2220
 27	 2221
 27	 2222
 27	 2223
 27	 2224
 27	 2225
 27	 2226
 27	 2227
 27	 2228
 27	 2229
 27	 2230
 27	 2231
 27	 2232
 27	 2233
 27	 2234
 27	 2235
 27	 2236
 27	 2237
 27	 2238
 27	 2239
 27	 2240
 27	 2241
 27	 2242
 27	 2243
 27	 2244
 27	 2245
 27	 2246
 27	 2247
 27	 2248
 27	 2249
 27	 2250
 27	 2251
 27	 2252
 27	 2253
 27	 2254
 27	 2255
 27	 2256
 27	 2257
 27	 2258
 27	 2259
 27	 2260
 27	 2261
 27	 2262
 27	 2263
 27	 2264
 27	 2265
 27	 2266
 27	 2267
 27	 2268
 27	 2269
 27	 2270
 27	 2271
 27	 2272
 27	 2273
 27	 2274
 27	 2275
 27	 2276
 27	 2277
 27	 2278
 27	 2279
 27	 2280
 27	 2281
 27	 2282
 27	 2283
 27	 2284
 27	 2285
 27	 2286
 27	 2287
 27	 2288
 27	 2289
 27	 2290
 27	 2291
 27	 2292
 27	 2293
 27	 2294
 27	 2295
 27	 2296
 27	 2297
 27	 2298
 27	 2299
 27	 2300
 27	 2301
 27	 2302
 27	 2303
 27	 2304
 27	 2305
 27	 2306
 27	 2307
 27	 2308
 27	 2309
 27	 2310
 27	 2311
 27	 2312
 27	 2313
 27	 2314
 27	 2315
 27	 2316
 27	 2317
 27	 2318
 27	 2319
 27	 2320
 27	 2321
 27	 2322
 27	 2323
 27	 2324
 27	 2325
 27	 2326
 27	 2327
 27	 2328
 27	 2329
 27	 2330
 27	 2331
 27	 2332
 27	 2333
 27	 2334
 27	 2335
 27	 2336
 27	 2337
 27	 2338
 27	 2339
 27	 2340
 27	 2341
 27	 2342
 27	 2343
 27	 2344
 27	 2345
 27	 2346
 27	 2347
 27	 2348
 27	 2349
 27	 2350
 27	 2351
 27	 2352
 27	 2353
 27	 2354
 27	 2355
 27	 2356
 27	 2357
 27	 2358
 27	 2359
 27	 2360
 27	 2361
 27	 2362
 27	 2363
 27	 2364
 27	 2365
 27	 2366
 27	 2367
 27	 2368
 27	 2369
 27	 2370
 28	 2190
 28	 2191
 28	 2192
 28	 2193
 28	 2194
 28	 2195
 28	 2196
 28	 2197
 28	 2198
 28	 2199
 28	 2200
 28	 2201
 28	 2202
 28	 2203
 28	 2204
 28	 2205
 28	 2206
 28	 2207
 28	 2208
 28	 2209
 28	 2210
 28	 2211
 28	 2212
 28	 2213
 28	 2214
 28	 2215
 28	 2216
 28	 2217
 28	 2218
 28	 2219
 28	 2220
 28	 2221
 28	 2222
 28	 2223
 28	 2224
 28	 2225
 28	 2226
 28	 2227
 28	 2228
 28	 2229
 28	 2230
 28	 2231
 28	 2232
 28	 2233
 28	 2234
 28	 2235
 28	 2236
 28	 2237
 28	 2238
 28	 2239
 28	 2240
 28	 2241
 28	 2242
 28	 2243
 28	 2244
 28	 2245
 28	 2246
 28	 2247
 28	 2248
 28	 2249
 28	 2250
 28	 2251
 28	 2252
 28	 2253
 28	 2254
 28	 2255
 28	 2256
 28	 2257
 28	 2258
 28	 2259
 28	 2260
 28	 2261
 28	 2262
 28	 2263
 28	 2264
 28	 2265
 28	 2266
 28	 2267
 28	 2268
 28	 2269
 28	 2270
 28	 2271
 28	 2272
 28	 2273
 28	 2274
 28	 2275
 28	 2276
 28	 2277
 28	 2278
 28	 2279
 28	 2280
 28	 2281
 28	 2282
 28	 2283
 28	 2284
 28	 2285
 28	 2286
 28	 2287
 28	 2288
 28	 2289
 28	 2290
 28	 2291
 28	 2292
 28	 2293
 28	 2294
 28	 2295
 28	 2296
 28	 2297
 28	 2298
 28	 2299
 28	 2300
 28	 2301
 28	 2302
 28	 2303
 28	 2304
 28	 2305
 28	 2306
 28	 2307
 28	 2308
 28	 2309
 28	 2310
 28	 2311
 28	 2312
 28	 2313
 28	 2314
 28	 2315
 28	 2316
 28	 2317
 28	 2318
 28	 2319
 28	 2320
 28	 2321
 28	 2322
 28	 2323
 28	 2324
 28	 2325
 28	 2326
 28	 2327
 28	 2328
 28	 2329
 28	 2330
 28	 2331
 28	 2332
 28	 2333
 28	 2334
 28	 2335
 28	 2336
 28	 2337
 28	 2338
 28	 2339
 28	 2340
 28	 2341
 28	 2342
 28	 2343
 28	 2344
 28	 2345
 28	 2346
 28	 2347
 28	 2348
 28	 2349
 28	 2350
 28	 2351
 28	 2352
 28	 2353
 28	 2354
 28	 2355
 28	 2356
 28	 2357
 28	 2358
 28	 2359
 28	 2360
 28	 2361
 28	 2362
 28	 2363
 28	 2364
 28	 2365
 28	 2366
 28	 2367
 28	 2368
 28	 2369
 28	 2370
 29	 2190
 29	 2191
 29	 2192
 29	 2193
 29	 2194
 29	 2195
 29	 2196
 29	 2197
 29	 2198
 29	 2199
 29	 2200
 29	 2201
 29	 2202
 29	 2203
 29	 2204
 29	 2205
 29	 2206
 29	 2207
 29	 2208
 29	 2209
 29	 2210
 29	 2211
 29	 2212
 29	 2213
 29	 2214
 29	 2215
 29	 2216
 29	 2217
 29	 2218
 29	 2219
 29	 2220
 29	 2221
 29	 2222
 29	 2223
 29	 2224
 29	 2225
 29	 2226
 29	 2227
 29	 2228
 29	 2229
 29	 2230
 29	 2231
 29	 2232
 29	 2233
 29	 2234
 29	 2235
 29	 2236
 29	 2237
 29	 2238
 29	 2239
 29	 2240
 29	 2241
 29	 2242
 29	 2243
 29	 2244
 29	 2245
 29	 2246
 29	 2247
 29	 2248
 29	 2249
 29	 2250
 29	 2251
 29	 2252
 29	 2253
 29	 2254
 29	 2255
 29	 2256
 29	 2257
 29	 2258
 29	 2259
 29	 2260
 29	 2261
 29	 2262
 29	 2263
 29	 2264
 29	 2265
 29	 2266
 29	 2267
 29	 2268
 29	 2269
 29	 2270
 29	 2271
 29	 2272
 29	 2273
 29	 2274
 29	 2275
 29	 2276
 29	 2277
 29	 2278
 29	 2279
 29	 2280
 29	 2281
 29	 2282
 29	 2283
 29	 2284
 29	 2285
 29	 2286
 29	 2287
 29	 2288
 29	 2289
 29	 2290
 29	 2291
 29	 2292
 29	 2293
 29	 2294
 29	 2295
 29	 2296
 29	 2297
 29	 2298
 29	 2299
 29	 2300
 29	 2301
 29	 2302
 29	 2303
 29	 2304
 29	 2305
 29	 2306
 29	 2307
 29	 2308
 29	 2309
 29	 2310
 29	 2311
 29	 2312
 29	 2313
 29	 2314
 29	 2315
 29	 2316
 29	 2317
 29	 2318
 29	 2319
 29	 2320
 29	 2321
 29	 2322
 29	 2323
 29	 2324
 29	 2325
 29	 2326
 29	 2327
 29	 2328
 29	 2329
 29	 2330
 29	 2331
 29	 2332
 29	 2333
 29	 2334
 29	 2335
 29	 2336
 29	 2337
 29	 2338
 29	 2339
 29	 2340
 29	 2341
 29	 2342
 29	 2343
 29	 2344
 29	 2345
 29	 2346
 29	 2347
 29	 2348
 29	 2349
 29	 2350
 29	 2351
 29	 2352
 29	 2353
 29	 2354
 29	 2355
 29	 2356
 29	 2357
 29	 2358
 29	 2359
 29	 2360
 29	 2361
 29	 2362
 29	 2363
 29	 2364
 29	 2365
 29	 2366
 29	 2367
 29	 2368
 29	 2369
 29	 2370
 30	 2190
 30	 2191
 30	 2192
 30	 2193
 30	 2194
 30	 2195
 30	 2196
 30	 2197
 30	 2198
 30	 2199
 30	 2200
 30	 2201
 30	 2202
 30	 2203
 30	 2204
 30	 2205
 30	 2206
 30	 2207
 30	 2208
 30	 2209
 30	 2210
 30	 2211
 30	 2212
 30	 2213
 30	 2214
 30	 2215
 30	 2216
 30	 2217
 30	 2218
 30	 2219
 30	 2220
 30	 2221
 30	 2222
 30	 2223
 30	 2224
 30	 2225
 30	 2226
 30	 2227
 30	 2228
 30	 2229
 30	 2230
 30	 2231
 30	 2232
 30	 2233
 30	 2234
 30	 2235
 30	 2236
 30	 2237
 30	 2238
 30	 2239
 30	 2240
 30	 2241
 30	 2242
 30	 2243
 30	 2244
 30	 2245
 30	 2246
 30	 2247
 30	 2248
 30	 2249
 30	 2250
 30	 2251
 30	 2252
 30	 2253
 30	 2254
 30	 2255
 30	 2256
 30	 2257
 30	 2258
 30	 2259
 30	 2260
 30	 2261
 30	 2262
 30	 2263
 30	 2264
 30	 2265
 30	 2266
 30	 2267
 30	 2268
 30	 2269
 30	 2270
 30	 2271
 30	 2272
 30	 2273
 30	 2274
 30	 2275
 30	 2276
 30	 2277
 30	 2278
 30	 2279
 30	 2280
 30	 2281
 30	 2282
 30	 2283
 30	 2284
 30	 2285
 30	 2286
 30	 2287
 30	 2288
 30	 2289
 31	 2190
 31	 2191
 31	 2192
 31	 2193
 32	 2190
 32	 2191
 32	 2192
 32	 2193
 33	 2190
 33	 2191
 33	 2192
 33	 2193
 34	 2190
 34	 2191
 34	 2192
 34	 2193
 35	 2190
 35	 2191
 35	 2192
 35	 2193
 36	 2190
 36	 2191
 36	 2192
 36	 2193
 37	 2190
 37	 2191
 37	 2192
 37	 2193
 38	 2190
 38	 2191
 38	 2192
 38	 2193
 39	 2190
 39	 2191
 39	 2192
 39	 2193
 40	 2190
 40	 2191
 40	 2192
 40	 2193
 41	 2190
 41	 2191
 41	 2192
 41	 2193
 42	 2190
 42	 2191
 42	 2192
 42	 2193
 43	 2190
 43	 2191
 43	 2192
 43	 2193
 44	 2190
 44	 2191
 44	 2192
 44	 2193
 45	 2190
 45	 2191
 45	 2192
 45	 2193
 46	 2190
 46	 2191
 46	 2192
 46	 2193
 47	 2190
 47	 2191
 47	 2192
 47	 2193
 48	 2190
 48	 2191
 48	 2192
 48	 2193
 49	 2190
 49	 2191
 49	 2192
 49	 2193
 50	 2190
 50	 2191
 50	 2192
 50	 2193
 51	 2190
 51	 2191
 51	 2192
 51	 2193
 52	 2190
 52	 2191
 52	 2192
 52	 2193
 53	 2190
 53	 2191
 53	 2192
 53	 2193
 54	 2190
 54	 2191
 54	 2192
 54	 2193
 55	 2190
 55	 2191
 55	 2192
 55	 2193
 56	 2190
 56	 2191
 56	 2192
 56	 2193
 57	 2190
 57	 2191
 57	 2192
 57	 2193
 58	 2190
 58	 2191
 58	 2192
 58	 2193
 59	 2190
 59	 2191
 59	 2192
 59	 2193
 60	 2190
 60	 2191
 60	 2192
 60	 2193
 61	 2190
 61	 2191
 61	 2192
 61	 2193
 62	 2190
 62	 2191
 62	 2192
 62	 2193
 63	 2190
 63	 2191
 63	 2192
 63	 2193
 64	 2190
 64	 2191
 64	 2192
 64	 2193
 65	 2190
 65	 2191
 65	 2192
 65	 2193
 66	 2190
 66	 2191
 66	 2192
 66	 2193
 67	 2190
 67	 2191
 67	 2192
 67	 2193
 68	 2190
 68	 2191
 68	 2192
 68	 2193
 69	 2190
 69	 2191
 69	 2192
 69	 2193
 70	 2190
 70	 2191
 70	 2192
 70	 2193
 71	 2190
 71	 2191
 71	 2192
 71	 2193
 72	 2190
 72	 2191
 72	 2192
 72	 2193
 73	 2190
 73	 2191
 73	 2192
 73	 2193
 74	 2190
 74	 2191
 74	 2192
 74	 2193
 75	 2190
 75	 2191
 75	 2192
 75	 2193
 76	 2190
 76	 2191
 76	 2192
 76	 2193
 77	 2190
 77	 2191
 77	 2192
 77	 2193
 78	 2190
 78	 2191
 78	 2192
 78	 2193
 79	 2190
 79	 2191
 79	 2192
 79	 2193
 80	 2190
 80	 2191
 80	 2192
 80	 2193
 81	 2190
 81	 2191
 81	 2192
 81	 2193
 82	 2190
 82	 2191
 82	 2192
 82	 2193
 83	 2190
 83	 2191
 83	 2192
 83	 2193
 84	 2190
 84	 2191
 84	 2192
 84	 2193
 85	 2190
 85	 2191
 85	 2192
 85	 2193
 86	 2190
 86	 2191
 86	 2192
 86	 2193
 87	 2190
 87	 2191
 87	 2192
 87	 2193
 88	 2190
 88	 2191
 88	 2192
 88	 2193
 89	 2190
 89	 2191
 89	 2192
 89	 2193
 90	 2190
 90	 2191
 90	 2192
 90	 2193
 91	 2190
 91	 2191
 91	 2192
 91	 2193
 92	 2190
 92	 2191
 92	 2192
 92	 2193
 93	 2190
 93	 2191
 93	 2192
 93	 2193
 94	 2190
 94	 2191
 94	 2192
 94	 2193
 95	 2190
 95	 2191
 95	 2192
 95	 2193
 96	 2190
 96	 2191
 96	 2192
 96	 2193
 97	 2190
 97	 2191
 97	 2192
 97	 2193
 98	 2190
 98	 2191
 98	 2192
 98	 2193
 99	 2190
 99	 2191
 99	 2192
 99	 2193
 100	 2190
 100	 2191
 100	 2192
 100	 2193
 101	 2190
 101	 2191
 101	 2192
 101	 2193
 102	 2190
 102	 2191
 102	 2192
 102	 2193
 103	 2190
 103	 2191
 103	 2192
 103	 2193
 104	 2190
 104	 2191
 104	 2192
 104	 2193
 105	 2190
 105	 2191
 105	 2192
 105	 2193
 106	 2190
 106	 2191
 106	 2192
 106	 2193
 107	 2190
 107	 2191
 107	 2192
 107	 2193
 108	 2190
 108	 2191
 108	 2192
 108	 2193
 109	 2190
 109	 2191
 109	 2192
 109	 2193
 110	 2190
 110	 2191
 110	 2192
 110	 2193
 111	 2190
 111	 2191
 111	 2192
 111	 2193
 112	 2190
 112	 2191
 112	 2192
 112	 2193
 113	 2190
 113	 2191
 113	 2192
 113	 2193
 114	 2190
 114	 2191
 114	 2192
 114	 2193
 115	 2190
 115	 2191
 115	 2192
 115	 2193
 115	 2194
 115	 2195
 115	 2196
 115	 2197
 115	 2198
 115	 2199
 115	 2200
 115	 2201
 115	 2202
 115	 2203
 115	 2204
 115	 2205
 115	 2206
 115	 2207
 115	 2208
 115	 2209
 115	 2210
 115	 2211
 115	 2212
 115	 2213
 115	 2214
 115	 2215
 115	 2216
 115	 2217
 115	 2218
 115	 2219
 115	 2220
 115	 2221
 115	 2222
 115	 2223
 115	 2224
 115	 2225
 115	 2226
 115	 2227
 115	 2228
 115	 2229
 115	 2230
 115	 2231
 115	 2232
 115	 2233
 115	 2234
 115	 2235
 115	 2236
 115	 2237
 115	 2238
 115	 2239
 115	 2240
 115	 2241
 115	 2242
 115	 2243
 115	 2244
 115	 2245
 115	 2246
 115	 2247
 115	 2248
 115	 2249
 115	 2250
 115	 2251
 115	 2252
 115	 2253
 115	 2254
 115	 2255
 115	 2256
 115	 2257
 115	 2258
 115	 2259
 115	 2260
 115	 2261
 115	 2262
 115	 2263
 115	 2264
 115	 2265
 115	 2266
 115	 2267
 115	 2268
 115	 2269
 115	 2270
 115	 2271
 116	 2190
 116	 2191
 116	 2192
 116	 2193
 116	 2194
 116	 2195
 116	 2196
 116	 2197
 116	 2198
 116	 2199
 116	 2200
 116	 2201
 116	 2202
 116	 2203
 116	 2204
 116	 2205
 116	 2206
 116	 2207
 116	 2208
 116	 2209
 116	 2210
 116	 2211
 116	 2212
 116	 2213
 116	 2214
 116	 2215
 116	 2216
 116	 2217
 116	 2218
 116	 2219
 116	 2220
 116	 2221
 116	 2222
 116	 2223
 116	 2224
 116	 2225
 116	 2226
 116	 2227
 116	 2228
 116	 2229
 116	 2230
 116	 2231
 116	 2232
 116	 2233
 116	 2234
 116	 2235
 116	 2236
 116	 2237
 116	 2238
 116	 2239
 116	 2240
 116	 2241
 116	 2242
 116	 2243
 116	 2244
 116	 2245
 116	 2246
 116	 2247
 116	 2248
 116	 2249
 116	 2250
 116	 2251
 116	 2252
 116	 2253
 116	 2254
 116	 2255
 116	 2256
 116	 2257
 116	 2258
 116	 2259
 116	 2260
 116	 2261
 116	 2262
 116	 2263
 116	 2264
 116	 2265
 116	 2266
 116	 2267
 116	 2268
 116	 2269
 116	 2270
 116	 2271
 116	 2272
 116	 2273
 116	 2274
 116	 2275
 116	 2276
 116	 2277
 116	 2278
 116	 2279
 116	 2280
 116	 2281
 116	 2282
 116	 2283
 116	 2284
 116	 2285
 116	 2286
 116	 2287
 116	 2288
 116	 2289
 116	 2290
 116	 2291
 116	 2292
 116	 2293
 116	 2294
 116	 2295
 116	 2296
 116	 2297
 116	 2298
 116	 2299
 116	 2300
 116	 2301
 116	 2302
 116	 2303
 116	 2304
 116	 2305
 116	 2306
 116	 2307
 116	 2308
 116	 2309
 116	 2310
 116	 2311
 116	 2312
 116	 2313
 116	 2314
 116	 2315
 116	 2316
 116	 2317
 116	 2318
 116	 2319
 116	 2320
 116	 2321
 116	 2322
 116	 2323
 116	 2324
 116	 2325
 116	 2326
 116	 2327
 116	 2328
 116	 2329
 116	 2330
 116	 2331
 116	 2332
 116	 2333
 116	 2334
 116	 2335
 116	 2336
 116	 2337
 116	 2338
 116	 2339
 116	 2340
 116	 2341
 116	 2342
 116	 2343
 116	 2344
 116	 2345
 116	 2346
 116	 2347
 116	 2348
 116	 2349
 116	 2350
 116	 2351
 116	 2352
 116	 2353
 116	 2354
 116	 2355
 116	 2356
 116	 2357
 116	 2358
 116	 2359
 116	 2360
 116	 2361
 116	 2362
 116	 2363
 116	 2364
 116	 2365
 116	 2366
 116	 2367
 116	 2368
 116	 2369
 116	 2370
 117	 2190
 117	 2191
 117	 2192
 117	 2193
 117	 2194
 117	 2195
 117	 2196
 117	 2197
 117	 2198
 117	 2199
 117	 2200
 117	 2201
 117	 2202
 117	 2203
 117	 2204
 117	 2205
 117	 2206
 117	 2207
 117	 2208
 117	 2209
 117	 2210
 117	 2211
 117	 2212
 117	 2213
 117	 2214
 117	 2215
 117	 2216
 117	 2217
 117	 2218
 117	 2219
 117	 2220
 117	 2221
 117	 2222
 117	 2223
 117	 2224
 117	 2225
 117	 2226
 117	 2227
 117	 2228
 117	 2229
 117	 2230
 117	 2231
 117	 2232
 117	 2233
 117	 2234
 117	 2235
 117	 2236
 117	 2237
 117	 2238
 117	 2239
 117	 2240
 117	 2241
 117	 2242
 117	 2243
 117	 2244
 117	 2245
 117	 2246
 117	 2247
 117	 2248
 117	 2249
 117	 2250
 117	 2251
 117	 2252
 117	 2253
 117	 2254
 117	 2255
 117	 2256
 117	 2257
 117	 2258
 117	 2259
 117	 2260
 117	 2261
 117	 2262
 117	 2263
 117	 2264
 117	 2265
 117	 2266
 117	 2267
 117	 2268
 117	 2269
 117	 2270
 117	 2271
 117	 2272
 117	 2273
 117	 2274
 117	 2275
 117	 2276
 117	 2277
 117	 2278
 117	 2279
 117	 2280
 117	 2281
 117	 2282
 117	 2283
 117	 2284
 117	 2285
 117	 2286
 117	 2287
 117	 2288
 117	 2289
 117	 2290
 117	 2291
 117	 2292
 117	 2293
 117	 2294
 117	 2295
 117	 2296
 117	 2297
 117	 2298
 117	 2299
 117	 2300
 117	 2301
 117	 2302
 117	 2303
 117	 2304
 117	 2305
 117	 2306
 117	 2307
 117	 2308
 117	 2309
 117	 2310
 117	 2311
 117	 2312
 117	 2313
 117	 2314
 117	 2315
 117	 2316
 117	 2317
 117	 2318
 117	 2319
 117	 2320
 117	 2321
 117	 2322
 117	 2323
 117	 2324
 117	 2325
 117	 2326
 117	 2327
 117	 2328
 117	 2329
 117	 2330
 117	 2331
 117	 2332
 117	 2333
 117	 2334
 117	 2335
 117	 2336
 117	 2337
 117	 2338
 117	 2339
 117	 2340
 117	 2341
 117	 2342
 117	 2343
 117	 2344
 117	 2345
 117	 2346
 117	 2347
 117	 2348
 117	 2349
 117	 2350
 117	 2351
 117	 2352
 117	 2353
 117	 2354
 117	 2355
 117	 2356
 117	 2357
 117	 2358
 117	 2359
 117	 2360
 117	 2361
 117	 2362
 117	 2363
 117	 2364
 117	 2365
 117	 2366
 117	 2367
 117	 2368
 117	 2369
 117	 2370
 118	 2196
 118	 2197
 118	 2198
 118	 2199
 118	 2200
 118	 2201
 118	 2202
 118	 2203
 118	 2204
 118	 2205
 118	 2206
 118	 2207
 118	 2208
 118	 2209
 118	 2210
 118	 2211
 118	 2212
 118	 2213
 118	 2214
 118	 2215
 118	 2216
 118	 2217
 118	 2218
 118	 2219
 118	 2220
 118	 2221
 118	 2222
 118	 2223
 118	 2224
 118	 2225
 118	 2226
 118	 2227
 118	 2228
 118	 2229
 118	 2230
 118	 2231
 118	 2232
 118	 2233
 118	 2234
 118	 2235
 118	 2236
 118	 2237
 118	 2238
 118	 2239
 118	 2240
 118	 2241
 118	 2242
 118	 2243
 118	 2244
 118	 2245
 118	 2246
 118	 2247
 118	 2248
 118	 2249
 118	 2250
 118	 2251
 118	 2252
 118	 2253
 118	 2254
 118	 2255
 118	 2256
 118	 2257
 118	 2258
 118	 2259
 118	 2260
 118	 2261
 118	 2262
 118	 2263
 118	 2264
 118	 2265
 118	 2266
 118	 2267
 118	 2268
 118	 2269
 118	 2270
 118	 2271
 118	 2272
 118	 2273
 118	 2274
 118	 2275
 118	 2276
 118	 2277
 118	 2278
 118	 2279
 118	 2280
 118	 2281
 118	 2282
 118	 2283
 118	 2284
 118	 2285
 118	 2286
 118	 2287
 118	 2288
 118	 2289
 118	 2290
 118	 2291
 118	 2292
 118	 2293
 118	 2294
 118	 2295
 118	 2296
 118	 2297
 118	 2298
 118	 2299
 118	 2300
 118	 2301
 118	 2302
 118	 2303
 118	 2304
 118	 2305
 118	 2306
 118	 2307
 118	 2308
 118	 2309
 118	 2310
 118	 2311
 118	 2312
 118	 2313
 118	 2314
 118	 2315
 118	 2316
 118	 2317
 118	 2318
 118	 2319
 118	 2320
 118	 2321
 118	 2322
 118	 2323
 118	 2324
 118	 2325
 118	 2326
 118	 2327
 118	 2328
 118	 2329
 118	 2330
 118	 2331
 118	 2332
 118	 2333
 118	 2334
 118	 2335
 118	 2336
 118	 2337
 118	 2338
 118	 2339
 118	 2340
 118	 2341
 118	 2342
 118	 2343
 118	 2344
 118	 2345
 118	 2346
 118	 2347
 118	 2348
 118	 2349
 118	 2350
 118	 2351
 118	 2352
 118	 2353
 118	 2354
 118	 2355
 118	 2356
 118	 2357
 118	 2358
 118	 2359
 118	 2360
 118	 2361
 118	 2362
 118	 2363
 118	 2364
 118	 2365
 118	 2366
 118	 2367
 118	 2368
 118	 2369
 118	 2370
 119	 2296
 119	 2297
 119	 2298
 119	 2299
 119	 2300
 119	 2301
 119	 2302
 119	 2303
 119	 2304
 119	 2305
 119	 2306
 119	 2307
 119	 2308
 119	 2309
 119	 2310
 119	 2311
 119	 2312
 119	 2313
 119	 2314
 119	 2315
 119	 2316
 119	 2317
 119	 2318
 119	 2319
 119	 2320
 119	 2321
 119	 2322
 119	 2323
 119	 2324
 119	 2325
 119	 2326
 119	 2327
 119	 2328
 119	 2329
 119	 2330
 119	 2331
 119	 2332
 119	 2333
 119	 2334
 119	 2335
 119	 2336
 119	 2337
 119	 2338
 119	 2339
 119	 2340
 119	 2341
 119	 2342
 119	 2343
 119	 2344
 119	 2345
 119	 2346
 119	 2347
 119	 2348
 119	 2349
 119	 2350
 119	 2351
 119	 2352
 119	 2353
 119	 2354
 119	 2355
 119	 2356
 119	 2357
 119	 2358
 119	 2359
 119	 2360
 119	 2361
 119	 2362
 119	 2363
 119	 2364
 119	 2365
 119	 2366
 119	 2367
 119	 2368
 119	 2369
 119	 2370
 120	 2367
 120	 2368
 120	 2369
 120	 2370
 121	 2367
 121	 2368
 121	 2369
 121	 2370
 122	 2366
 122	 2367
 122	 2368
 122	 2369
 122	 2370
 123	 2364
 123	 2365
 123	 2366
 123	 2367
 123	 2368
 123	 2369
 123	 2370
 124	 2362
 124	 2363
 124	 2364
 124	 2365
 124	 2366
 124	 2367
 124	 2368
 124	 2369
 124	 2370
 125	 2359
 125	 2360
 125	 2361
 125	 2362
 125	 2363
 125	 2364
 125	 2367
 125	 2368
 125	 2369
 125	 2370
 126	 2356
 126	 2357
 126	 2358
 126	 2359
 126	 2360
 126	 2361
 126	 2362
 127	 2354
 127	 2355
 127	 2356
 127	 2357
 127	 2358
 127	 2359
 128	 2350
 128	 2351
 128	 2352
 128	 2353
 128	 2354
 128	 2355
 128	 2356
 129	 2349
 129	 2350
 129	 2351
 129	 2352
 129	 2353
 129	 2354
 130	 2345
 130	 2346
 130	 2347
 130	 2348
 130	 2349
 130	 2350
 131	 2335
 131	 2336
 131	 2337
 131	 2338
 131	 2339
 131	 2340
 131	 2341
 131	 2342
 131	 2343
 131	 2344
 131	 2345
 131	 2346
 131	 2347
 131	 2348
 131	 2349
 132	 2291
 132	 2292
 132	 2293
 132	 2294
 132	 2335
 132	 2336
 132	 2337
 132	 2338
 132	 2339
 132	 2340
 132	 2341
 132	 2342
 132	 2343
 132	 2344
 132	 2345
 132	 2346
 133	 2291
 133	 2292
 133	 2293
 133	 2294
 133	 2295
 133	 2296
 133	 2297
 133	 2298
 133	 2299
 133	 2300
 133	 2301
 133	 2302
 133	 2303
 133	 2304
 133	 2305
 133	 2306
 133	 2307
 133	 2308
 133	 2309
 133	 2310
 133	 2311
 133	 2312
 133	 2313
 133	 2314
 133	 2315
 133	 2316
 133	 2317
 133	 2318
 133	 2319
 133	 2320
 133	 2321
 133	 2322
 133	 2323
 133	 2324
 133	 2325
 133	 2326
 133	 2327
 133	 2328
 133	 2329
 133	 2330
 133	 2331
 133	 2332
 133	 2333
 133	 2334
 133	 2335
 133	 2336
 134	 2290
 134	 2291
 134	 2292
 134	 2293
 134	 2294
 134	 2295
 134	 2296
 134	 2297
 134	 2298
 134	 2299
 134	 2300
 134	 2301
 134	 2302
 134	 2303
 134	 2304
 134	 2305
 134	 2306
 134	 2307
 134	 2308
 134	 2309
 134	 2310
 134	 2311
 134	 2312
 134	 2313
 134	 2314
 134	 2315
 134	 2316
 134	 2317
 134	 2318
 134	 2319
 134	 2320
 134	 2321
 134	 2322
 134	 2323
 134	 2324
 134	 2325
 134	 2326
 134	 2327
 134	 2328
 134	 2329
 134	 2330
 134	 2331
 134	 2332
 134	 2333
 134	 2334
 134	 2335
 135	 2290
 135	 2291
 135	 2292
 135	 2293
 135	 2294
 135	 2295
 135	 2296
 136	 2291
 136	 2292
 136	 2293
 136	 2294
 136	 2295
 136	 2296
 137	 2293
 137	 2294
 137	 2295
 137	 2296
 138	 2293
 138	 2294
 138	 2295
 138	 2296
 139	 2293
 139	 2294
 139	 2295
 139	 2296
 140	 2294
 140	 2295
 140	 2296
 141	 2294
 141	 2295
 141	 2296
 142	 2294
 142	 2295
 142	 2296
 143	 2294
 143	 2295
 143	 2296
 144	 2294
 144	 2295
 144	 2296
 144	 2297
 145	 2294
 145	 2295
 145	 2296
 145	 2297
 145	 2298
 145	 2299
 146	 2294
 146	 2295
 146	 2296
 146	 2297
 146	 2298
 146	 2299
 147	 2294
 147	 2295
 147	 2296
 147	 2297
 147	 2298
 147	 2299
 148	 2296
 148	 2297
 148	 2298
 148	 2299
 149	 2296
 149	 2297
 149	 2298
 149	 2299
 150	 2296
 150	 2297
 150	 2298
 150	 2299
 151	 2296
 151	 2297
 151	 2298
 151	 2299
 151	 2300
 152	 2296
 152	 2297
 152	 2298
 152	 2299
 152	 2300
 153	 2297
 153	 2298
 153	 2299
 153	 2300
 154	 2297
 154	 2298
 154	 2299
 154	 2300
 155	 2295
 155	 2296
 155	 2297
 155	 2298
 155	 2299
 155	 2300
 156	 2293
 156	 2294
 156	 2295
 156	 2296
 156	 2297
 156	 2298
 156	 2299
 156	 2300
 157	 2292
 157	 2293
 157	 2294
 157	 2295
 157	 2296
 157	 2297
 157	 2298
 157	 2299
 157	 2300
 158	 2291
 158	 2292
 158	 2293
 158	 2294
 158	 2295
 158	 2296
 158	 2297
 158	 2298
 159	 2290
 159	 2291
 159	 2292
 159	 2293
 159	 2294
 159	 2295
 160	 2290
 160	 2291
 160	 2292
 160	 2293
 160	 2294
 161	 2290
 161	 2291
 161	 2292
 161	 2293
 161	 2294
 162	 2290
 162	 2291
 162	 2292
 162	 2293
 162	 2294
 162	 2295
 163	 2290
 163	 2291
 163	 2292
 163	 2293
 163	 2294
 163	 2295
 164	 2289
 164	 2290
 164	 2291
 164	 2292
 164	 2293
 164	 2294
 164	 2295
 165	 2288
 165	 2289
 165	 2290
 165	 2291
 165	 2292
 165	 2293
 165	 2294
 166	 2287
 166	 2288
 166	 2289
 166	 2290
 166	 2291
 166	 2292
 167	 2285
 167	 2286
 167	 2287
 167	 2288
 167	 2289
 167	 2290
 167	 2291
 168	 2280
 168	 2281
 168	 2282
 168	 2283
 168	 2284
 168	 2285
 168	 2286
 168	 2287
 168	 2288
 168	 2289
 168	 2290
 169	 2273
 169	 2274
 169	 2275
 169	 2276
 169	 2277
 169	 2278
 169	 2279
 169	 2280
 169	 2281
 169	 2282
 169	 2283
 169	 2284
 169	 2285
 169	 2286
 169	 2287
 169	 2288
 169	 2289
 170	 2268
 170	 2269
 170	 2270
 170	 2271
 170	 2272
 170	 2273
 170	 2274
 170	 2275
 170	 2276
 170	 2277
 170	 2278
 170	 2279
 170	 2280
 170	 2281
 170	 2282
 170	 2283
 170	 2284
 170	 2285
 170	 2286
 170	 2287
 170	 2288
 170	 2289
 170	 2290
 170	 2291
 170	 2292
 170	 2293
 170	 2294
 170	 2295
 171	 2270
 171	 2271
 171	 2272
 171	 2273
 171	 2274
 171	 2275
 171	 2276
 171	 2277
 171	 2278
 171	 2279
 171	 2280
 171	 2281
 171	 2282
 171	 2283
 171	 2284
 171	 2285
 171	 2286
 171	 2287
 171	 2288
 171	 2289
 171	 2290
 171	 2291
 171	 2292
 171	 2293
 171	 2294
 171	 2295
 171	 2296
 171	 2297
 172	 2277
 172	 2278
 172	 2279
 172	 2280
 172	 2281
 172	 2282
 172	 2283
 172	 2284
 172	 2285
 172	 2286
 172	 2287
 172	 2288
 172	 2289
 172	 2290
 172	 2291
 172	 2292
 172	 2293
 172	 2294
 172	 2295
 172	 2296
 172	 2297
 173	 2269
 173	 2270
 173	 2271
 173	 2272
 173	 2273
 173	 2274
 173	 2275
 173	 2276
 173	 2277
 173	 2278
 173	 2279
 173	 2280
 173	 2281
 173	 2282
 173	 2283
 173	 2284
 173	 2285
 173	 2286
 173	 2287
 173	 2288
 173	 2289
 173	 2290
 173	 2291
 173	 2292
 173	 2293
 173	 2294
 173	 2295
 173	 2296
 173	 2297
 174	 2268
 174	 2269
 174	 2270
 174	 2271
 174	 2272
 174	 2273
 174	 2274
 174	 2275
 174	 2276
 174	 2277
 174	 2278
 174	 2279
 174	 2280
 174	 2281
 174	 2282
 174	 2283
 174	 2284
 174	 2285
 174	 2286
 174	 2287
 174	 2288
 174	 2289
 174	 2290
 174	 2291
 174	 2292
 174	 2293
 174	 2294
 174	 2295
 174	 2296
 175	 2275
 175	 2276
 175	 2277
 175	 2278
 175	 2279
 175	 2280
 175	 2281
 175	 2282
 175	 2283
 175	 2284
 175	 2285
 175	 2286
 175	 2287
 175	 2288
 175	 2289
 175	 2290
 176	 2279
 176	 2280
 176	 2281
 176	 2282
 176	 2283
 176	 2284
 176	 2285
 176	 2286
 176	 2287
 176	 2288
 176	 2289
 176	 2290
 176	 2291
 177	 2280
 177	 2281
 177	 2282
 177	 2283
 177	 2284
 177	 2285
 177	 2286
 177	 2287
 177	 2288
 177	 2289
 178	 2281
 178	 2282
 178	 2283
 178	 2284
 178	 2285
 178	 2286
 178	 2287
 178	 2288
 179	 2280
 179	 2281
 179	 2282
 179	 2283
 179	 2284
 179	 2285
 179	 2286
 180	 2279
 180	 2280
 180	 2281
 180	 2282
 180	 2283
 181	 2278
 181	 2279
 181	 2280
 181	 2281
 181	 2282
 181	 2283
 182	 2277
 182	 2278
 182	 2279
 182	 2280
 182	 2281
 182	 2282
 183	 2277
 183	 2278
 183	 2279
 183	 2280
 183	 2281
 184	 2277
 184	 2278
 184	 2279
 184	 2280
 184	 2281
 184	 2282
 184	 2283
 185	 2277
 185	 2278
 185	 2279
 185	 2280
 185	 2281
 185	 2282
 185	 2283
 185	 2284
 185	 2285
 185	 2286
 186	 2277
 186	 2278
 186	 2279
 186	 2280
 186	 2281
 186	 2282
 186	 2283
 186	 2284
 186	 2285
 186	 2286
 187	 2279
 187	 2280
 187	 2281
 187	 2282
 187	 2283
 187	 2284
 187	 2285
 188	 2279
 188	 2280
 188	 2281
 188	 2282
 188	 2283
 188	 2284
 189	 2280
 189	 2281
 189	 2282
 189	 2283
 190	 2281
 190	 2282
 190	 2283
 191	 2281
 191	 2282
 191	 2283
 191	 2284
 192	 2281
 192	 2282
 192	 2283
 192	 2284
 193	 2281
 193	 2282
 193	 2283
 193	 2284
 193	 2285
 193	 2286
 194	 2282
 194	 2283
 194	 2284
 194	 2285
 194	 2286
 194	 2287
 194	 2288
 195	 2282
 195	 2283
 195	 2284
 195	 2285
 195	 2286
 195	 2287
 195	 2288
 195	 2289
 196	 2284
 196	 2285
 196	 2286
 196	 2287
 196	 2288
 196	 2289
 196	 2290
 196	 2291
 197	 2286
 197	 2287
 197	 2288
 197	 2289
 197	 2290
 197	 2291
 197	 2292
 197	 2293
 197	 2294
 197	 2295
 197	 2296
 198	 2287
 198	 2288
 198	 2289
 198	 2290
 198	 2291
 198	 2292
 198	 2293
 198	 2294
 198	 2295
 198	 2296
 198	 2297
 198	 2298
 198	 2299
 198	 2300
 198	 2301
 198	 2302
 198	 2303
 199	 2289
 199	 2290
 199	 2291
 199	 2292
 199	 2293
 199	 2294
 199	 2295
 199	 2296
 199	 2297
 199	 2298
 199	 2299
 199	 2300
 199	 2301
 199	 2302
 199	 2303
 199	 2304
 199	 2305
 199	 2306
 199	 2307
 199	 2308
 200	 2292
 200	 2293
 200	 2294
 200	 2295
 200	 2296
 200	 2297
 200	 2298
 200	 2299
 200	 2300
 200	 2301
 200	 2302
 200	 2303
 200	 2304
 200	 2305
 200	 2306
 200	 2307
 200	 2308
 200	 2309
 201	 2297
 201	 2298
 201	 2299
 201	 2300
 201	 2301
 201	 2302
 201	 2303
 201	 2304
 201	 2305
 201	 2306
 201	 2307
 201	 2308
 201	 2309
 201	 2310
 202	 2305
 202	 2306
 202	 2307
 202	 2308
 202	 2309
 202	 2310
 203	 2304
 203	 2305
 203	 2306
 203	 2307
 203	 2308
 203	 2309
 204	 2304
 204	 2305
 204	 2306
 204	 2307
 204	 2308
 204	 2309
 205	 2304
 205	 2305
 205	 2306
 205	 2307
 205	 2308
 205	 2309
 206	 2304
 206	 2305
 206	 2306
 206	 2307
 206	 2308
 206	 2309
 206	 2310
 206	 2311
 206	 2312
 207	 2305
 207	 2306
 207	 2307
 207	 2308
 207	 2309
 207	 2310
 207	 2311
 207	 2312
 207	 2313
 207	 2314
 208	 2307
 208	 2308
 208	 2309
 208	 2310
 208	 2311
 208	 2312
 208	 2313
 208	 2314
 209	 2309
 209	 2310
 209	 2311
 209	 2312
 209	 2313
 209	 2314
 209	 2315
 209	 2316
 209	 2317
 210	 2311
 210	 2312
 210	 2313
 210	 2314
 210	 2315
 210	 2316
 210	 2317
 210	 2318
 210	 2319
 210	 2320
 211	 2312
 211	 2313
 211	 2314
 211	 2315
 211	 2316
 211	 2317
 211	 2318
 211	 2319
 211	 2320
 211	 2321
 211	 2322
 211	 2323
 212	 2314
 212	 2315
 212	 2316
 212	 2317
 212	 2318
 212	 2319
 212	 2320
 212	 2321
 212	 2322
 212	 2323
 213	 2317
 213	 2318
 213	 2319
 213	 2320
 213	 2321
 213	 2322
 213	 2323
 214	 2316
 214	 2317
 214	 2318
 214	 2319
 214	 2320
 214	 2321
 214	 2322
 214	 2323
 215	 2314
 215	 2315
 215	 2316
 215	 2317
 215	 2318
 215	 2319
 215	 2320
 215	 2321
 215	 2322
 216	 2312
 216	 2313
 216	 2314
 216	 2315
 216	 2316
 216	 2317
 216	 2318
 216	 2319
 216	 2320
 216	 2321
 216	 2322
 217	 2311
 217	 2312
 217	 2313
 217	 2314
 217	 2315
 217	 2316
 217	 2317
 217	 2318
 217	 2319
 217	 2320
 217	 2321
 217	 2322
 217	 2323
 217	 2324
 217	 2325
 217	 2326
 217	 2327
 217	 2328
 217	 2329
 217	 2330
 218	 2314
 218	 2315
 218	 2316
 218	 2317
 218	 2318
 218	 2319
 218	 2320
 218	 2321
 218	 2322
 218	 2323
 218	 2324
 218	 2325
 218	 2326
 218	 2327
 218	 2328
 218	 2329
 218	 2330
 218	 2331
 218	 2332
 218	 2333
 218	 2334
 218	 2335
 218	 2336
 218	 2337
 218	 2338
 219	 2318
 219	 2319
 219	 2320
 219	 2321
 219	 2322
 219	 2323
 219	 2324
 219	 2325
 219	 2326
 219	 2327
 219	 2328
 219	 2329
 219	 2330
 219	 2331
 219	 2332
 219	 2333
 219	 2334
 219	 2335
 219	 2336
 219	 2337
 219	 2338
 219	 2339
 219	 2340
 219	 2341
 219	 2342
 219	 2343
 219	 2344
 219	 2345
 219	 2346
 219	 2347
 219	 2348
 220	 2323
 220	 2324
 220	 2325
 220	 2326
 220	 2327
 220	 2328
 220	 2329
 220	 2330
 220	 2331
 220	 2332
 220	 2333
 220	 2334
 220	 2335
 220	 2336
 220	 2337
 220	 2338
 220	 2339
 220	 2340
 220	 2341
 220	 2342
 220	 2343
 220	 2344
 220	 2345
 220	 2346
 220	 2347
 220	 2348
 220	 2349
 220	 2350
 220	 2351
 220	 2352
 220	 2353
 220	 2354
 221	 2332
 221	 2333
 221	 2334
 221	 2335
 221	 2336
 221	 2337
 221	 2338
 221	 2339
 221	 2340
 221	 2341
 221	 2342
 221	 2343
 221	 2344
 221	 2345
 221	 2346
 221	 2347
 221	 2348
 221	 2349
 221	 2350
 221	 2351
 221	 2352
 221	 2353
 221	 2354
 221	 2355
 221	 2356
 221	 2357
 221	 2358
 221	 2359
 221	 2360
 221	 2361
 222	 2340
 222	 2341
 222	 2342
 222	 2343
 222	 2344
 222	 2345
 222	 2346
 222	 2347
 222	 2348
 222	 2349
 222	 2350
 222	 2351
 222	 2352
 222	 2353
 222	 2354
 222	 2355
 222	 2356
 222	 2357
 222	 2358
 222	 2359
 222	 2360
 222	 2361
 222	 2362
 222	 2363
 222	 2364
 222	 2365
 222	 2366
 222	 2367
 222	 2368
 222	 2369
 223	 2349
 223	 2350
 223	 2351
 223	 2352
 223	 2353
 223	 2354
 223	 2355
 223	 2356
 223	 2357
 223	 2358
 223	 2359
 223	 2360
 223	 2361
 223	 2362
 223	 2363
 223	 2364
 223	 2365
 223	 2366
 223	 2367
 223	 2368
 223	 2369
 223	 2370
 223	 2371
 223	 2372
 223	 2373
 223	 2374
 223	 2375
 223	 2376
 223	 2377
 223	 2378
 223	 2379
 223	 2380
 224	 2356
 224	 2357
 224	 2358
 224	 2359
 224	 2360
 224	 2361
 224	 2362
 224	 2363
 224	 2364
 224	 2365
 224	 2366
 224	 2367
 224	 2368
 224	 2369
 224	 2370
 224	 2371
 224	 2372
 224	 2373
 224	 2374
 224	 2375
 224	 2376
 224	 2377
 224	 2378
 224	 2379
 224	 2380
 224	 2381
 224	 2382
 224	 2383
 224	 2384
 224	 2385
 224	 2386
 224	 2387
 224	 2388
 224	 2389
 224	 2390
 225	 2363
 225	 2364
 225	 2365
 225	 2366
 225	 2367
 225	 2368
 225	 2369
 225	 2370
 225	 2371
 225	 2372
 225	 2373
 225	 2374
 225	 2375
 225	 2376
 225	 2377
 225	 2378
 225	 2379
 225	 2380
 225	 2381
 225	 2382
 225	 2383
 225	 2384
 225	 2385
 225	 2386
 225	 2387
 225	 2388
 225	 2389
 225	 2390
 225	 2391
 225	 2392
 225	 2393
 225	 2394
 225	 2395
 225	 2396
 225	 2397
 225	 2398
 226	 2371
 226	 2372
 226	 2373
 226	 2374
 226	 2375
 226	 2376
 226	 2377
 226	 2378
 226	 2379
 226	 2380
 226	 2381
 226	 2382
 226	 2383
 226	 2384
 226	 2385
 226	 2386
 226	 2387
 226	 2388
 226	 2389
 226	 2390
 226	 2391
 226	 2392
 226	 2393
 226	 2394
 226	 2395
 226	 2396
 226	 2397
 226	 2398
 227	 2381
 227	 2382
 227	 2383
 227	 2384
 227	 2385
 227	 2386
 227	 2387
 227	 2388
 227	 2389
 227	 2390
 227	 2391
 227	 2392
 227	 2393
 227	 2394
 227	 2395
 228	 2378
 228	 2379
 228	 2380
 228	 2381
 228	 2382
 228	 2383
 228	 2384
 228	 2385
 228	 2386
 228	 2387
 228	 2388
 228	 2389
 228	 2390
 228	 2391
 228	 2392
 229	 2377
 229	 2378
 229	 2379
 229	 2380
 229	 2381
 229	 2382
 229	 2383
 229	 2384
 229	 2385
 229	 2386
 229	 2387
 229	 2388
 229	 2389
 230	 2374
 230	 2375
 230	 2376
 230	 2377
 230	 2378
 230	 2379
 230	 2380
 230	 2381
 230	 2382
 230	 2383
 230	 2384
 230	 2385
 231	 2368
 231	 2369
 231	 2370
 231	 2371
 231	 2372
 231	 2373
 231	 2374
 231	 2375
 231	 2376
 231	 2377
 231	 2378
 231	 2379
 231	 2380
 231	 2381
 232	 2359
 232	 2360
 232	 2361
 232	 2362
 232	 2363
 232	 2364
 232	 2365
 232	 2366
 232	 2367
 232	 2368
 232	 2369
 232	 2370
 232	 2371
 232	 2372
 232	 2373
 232	 2374
 232	 2375
 232	 2376
 232	 2377
 232	 2378
 232	 2379
 233	 2352
 233	 2353
 233	 2354
 233	 2355
 233	 2356
 233	 2357
 233	 2358
 233	 2359
 233	 2360
 233	 2361
 233	 2362
 233	 2363
 233	 2364
 233	 2365
 233	 2366
 233	 2367
 233	 2368
 233	 2369
 233	 2370
 233	 2371
 233	 2372
 233	 2373
 233	 2374
 233	 2375
 233	 2376
 233	 2377
 234	 2350
 234	 2351
 234	 2352
 234	 2353
 234	 2354
 234	 2355
 234	 2356
 234	 2357
 234	 2358
 234	 2359
 234	 2360
 234	 2361
 234	 2362
 234	 2363
 234	 2364
 234	 2365
 234	 2366
 234	 2367
 234	 2368
 234	 2369
 234	 2370
 234	 2371
 234	 2372
 234	 2373
 235	 2347
 235	 2348
 235	 2349
 235	 2350
 235	 2351
 235	 2352
 235	 2353
 235	 2354
 235	 2355
 235	 2356
 235	 2357
 235	 2358
 235	 2359
 235	 2360
 235	 2361
 235	 2362
 235	 2363
 235	 2364
 235	 2365
 235	 2366
 236	 2344
 236	 2345
 236	 2346
 236	 2347
 236	 2348
 236	 2349
 236	 2350
 236	 2351
 236	 2352
 236	 2353
 236	 2354
 236	 2355
 236	 2356
 236	 2357
 237	 2340
 237	 2341
 237	 2342
 237	 2343
 237	 2344
 237	 2345
 237	 2346
 237	 2347
 237	 2348
 237	 2349
 237	 2350
 237	 2351
 237	 2352
 238	 2333
 238	 2334
 238	 2335
 238	 2336
 238	 2337
 238	 2338
 238	 2339
 238	 2340
 238	 2341
 238	 2342
 238	 2343
 238	 2344
 238	 2345
 238	 2346
 238	 2347
 238	 2348
 238	 2349
 238	 2350
 239	 2327
 239	 2328
 239	 2329
 239	 2330
 239	 2331
 239	 2332
 239	 2333
 239	 2334
 239	 2335
 239	 2336
 239	 2337
 239	 2338
 239	 2339
 239	 2340
 239	 2341
 239	 2342
 239	 2343
 239	 2344
 239	 2345
 239	 2346
 239	 2347
 240	 2322
 240	 2323
 240	 2324
 240	 2325
 240	 2326
 240	 2327
 240	 2328
 240	 2329
 240	 2330
 240	 2331
 240	 2332
 240	 2333
 240	 2334
 240	 2335
 240	 2336
 240	 2337
 240	 2338
 240	 2339
 240	 2340
 240	 2341
 240	 2342
 240	 2343
 241	 2316
 241	 2317
 241	 2318
 241	 2319
 241	 2320
 241	 2321
 241	 2322
 241	 2323
 241	 2324
 241	 2325
 241	 2326
 241	 2327
 241	 2328
 241	 2329
 241	 2330
 241	 2331
 241	 2332
 241	 2333
 241	 2334
 241	 2335
 241	 2336
 241	 2337
 241	 2338
 242	 2309
 242	 2310
 242	 2311
 242	 2312
 242	 2313
 242	 2314
 242	 2315
 242	 2316
 242	 2317
 242	 2318
 242	 2319
 242	 2320
 242	 2321
 242	 2322
 242	 2323
 242	 2324
 242	 2325
 242	 2326
 242	 2327
 242	 2328
 242	 2329
 242	 2330
 242	 2331
 243	 2303
 243	 2304
 243	 2305
 243	 2306
 243	 2307
 243	 2308
 243	 2309
 243	 2310
 243	 2311
 243	 2312
 243	 2313
 243	 2314
 243	 2315
 243	 2316
 243	 2317
 243	 2318
 243	 2319
 243	 2320
 243	 2321
 243	 2322
 243	 2323
 243	 2324
 243	 2325
 243	 2326
 244	 2296
 244	 2297
 244	 2298
 244	 2299
 244	 2300
 244	 2301
 244	 2302
 244	 2303
 244	 2304
 244	 2305
 244	 2306
 244	 2307
 244	 2308
 244	 2309
 244	 2310
 244	 2311
 244	 2312
 244	 2313
 244	 2314
 244	 2315
 244	 2316
 244	 2317
 244	 2318
 244	 2319
 244	 2320
 244	 2321
 245	 2291
 245	 2292
 245	 2293
 245	 2294
 245	 2295
 245	 2296
 245	 2297
 245	 2298
 245	 2299
 245	 2300
 245	 2301
 245	 2302
 245	 2303
 245	 2304
 245	 2305
 245	 2306
 245	 2307
 245	 2308
 245	 2309
 245	 2310
 245	 2311
 245	 2312
 245	 2313
 245	 2314
 246	 2287
 246	 2288
 246	 2289
 246	 2290
 246	 2291
 246	 2292
 246	 2293
 246	 2294
 246	 2295
 246	 2296
 246	 2297
 246	 2298
 246	 2299
 246	 2300
 246	 2301
 246	 2302
 246	 2303
 246	 2304
 246	 2305
 246	 2306
 246	 2307
 246	 2308
 247	 2284
 247	 2285
 247	 2286
 247	 2287
 247	 2288
 247	 2289
 247	 2290
 247	 2291
 247	 2292
 247	 2293
 247	 2294
 247	 2295
 247	 2296
 247	 2297
 247	 2298
 247	 2299
 247	 2300
 247	 2301
 248	 2284
 248	 2285
 248	 2286
 248	 2287
 248	 2288
 248	 2289
 248	 2290
 248	 2291
 248	 2292
 248	 2293
 248	 2294
 248	 2295
 249	 2283
 249	 2284
 249	 2285
 249	 2286
 249	 2287
 249	 2288
 249	 2289
 249	 2290
 250	 2281
 250	 2282
 250	 2283
 250	 2284
 250	 2285
 250	 2286
 250	 2287
 251	 2279
 251	 2280
 251	 2281
 251	 2282
 251	 2283
 251	 2284
 251	 2285
 251	 2286
 251	 2287
 251	 2288
 251	 2289
 252	 2280
 252	 2281
 252	 2282
 252	 2283
 252	 2284
 252	 2285
 252	 2286
 252	 2287
 252	 2288
 252	 2289
 253	 2283
 253	 2284
 253	 2285
 253	 2286
 253	 2287
 253	 2288
 253	 2289
 253	 2290
 254	 2286
 254	 2287
 254	 2288
 254	 2289
 254	 2290
 254	 2291
 254	 2292
 255	 2287
 255	 2288
 255	 2289
 255	 2290
 255	 2291
 255	 2292
 256	 2288
 256	 2289
 256	 2290
 256	 2291
 256	 2292
 256	 2293
 257	 2289
 257	 2290
 257	 2291
 257	 2292
 257	 2293
 258	 2290
 258	 2291
 258	 2292
 258	 2293
 258	 2294
 258	 2295
 259	 2290
 259	 2291
 259	 2292
 259	 2293
 259	 2294
 259	 2295
 259	 2296
 259	 2297
 260	 2291
 260	 2292
 260	 2293
 260	 2294
 260	 2295
 260	 2296
 260	 2297
 260	 2298
 260	 2299
 261	 2293
 261	 2294
 261	 2295
 261	 2296
 261	 2297
 261	 2298
 261	 2299
 261	 2300
 261	 2301
 262	 2295
 262	 2296
 262	 2297
 262	 2298
 262	 2299
 262	 2300
 262	 2301
 263	 2296
 263	 2297
 263	 2298
 263	 2299
 263	 2300
 264	 2296
 264	 2297
 264	 2298
 264	 2299
 265	 2296
 265	 2297
 265	 2298
 265	 2299
 266	 2295
 266	 2296
 266	 2297
 266	 2298
 266	 2299
 267	 2295
 267	 2296
 267	 2297
 267	 2298
 267	 2299
 268	 2294
 268	 2295
 268	 2296
 268	 2297
 268	 2298
 268	 2299
 269	 2294
 269	 2295
 269	 2296
 269	 2297
 269	 2298
 269	 2299
 270	 2294
 270	 2295
 270	 2296
 270	 2297
 270	 2298
 270	 2299
 271	 2295
 271	 2296
 271	 2297
 271	 2298
 271	 2299
 272	 2295
 272	 2296
 272	 2297
 272	 2298
 272	 2299
 273	 2295
 273	 2296
 273	 2297
 273	 2298
 274	 2295
 274	 2296
 274	 2297
 274	 2298
 275	 2295
 275	 2296
 275	 2297
 275	 2298
 276	 2295
 276	 2296
 276	 2297
 276	 2298
 277	 2295
 277	 2296
 277	 2297
 278	 2295
 278	 2296
 278	 2297
 279	 2295
 279	 2296
 279	 2297
 280	 2295
 280	 2296
 280	 2297
 280	 2298
 281	 2295
 281	 2296
 281	 2297
 281	 2298
 282	 2295
 282	 2296
 282	 2297
 282	 2298
 283	 2295
 283	 2296
 283	 2297
 283	 2298
 284	 2295
 284	 2296
 284	 2297
 284	 2298
 284	 2299
 285	 2296
 285	 2297
 285	 2298
 285	 2299
 286	 2295
 286	 2296
 286	 2297
 286	 2298
 286	 2299
 286	 2300
 287	 2294
 287	 2295
 287	 2296
 287	 2297
 287	 2298
 287	 2299
 287	 2300
 288	 2296
 288	 2297
 288	 2298
 288	 2299
 288	 2300
 289	 2296
 289	 2297
 289	 2298
 289	 2299
 289	 2300
 290	 2295
 290	 2296
 290	 2297
 290	 2298
 290	 2299
 290	 2300
 290	 2301
 291	 2296
 291	 2297
 291	 2298
 291	 2299
 291	 2300
 291	 2301
 292	 2298
 292	 2299
 292	 2300
 292	 2301
 293	 2297
 293	 2298
 293	 2299
 293	 2300
 293	 2301
 294	 2296
 294	 2297
 294	 2298
 294	 2299
 294	 2300
 294	 2301
 294	 2302
 295	 2297
 295	 2298
 295	 2299
 295	 2300
 295	 2301
 295	 2302
 296	 2298
 296	 2299
 296	 2300
 296	 2301
 296	 2302
 297	 2297
 297	 2298
 297	 2299
 297	 2300
 297	 2301
 298	 2297
 298	 2298
 298	 2299
 298	 2300
 298	 2301
 299	 2296
 299	 2297
 299	 2298
 299	 2299
 299	 2300
 300	 2296
 300	 2297
 300	 2298
 300	 2299
 300	 2300
 301	 2295
 301	 2296
 301	 2297
 301	 2298
 301	 2299
 302	 2295
 302	 2296
 302	 2297
 302	 2298
 302	 2299
 303	 2294
 303	 2295
 303	 2296
 303	 2297
 303	 2298
 304	 2294
 304	 2295
 304	 2296
 304	 2297
 304	 2298
 305	 2294
 305	 2295
 305	 2296
 305	 2297
 306	 2294
 306	 2295
 306	 2296
 306	 2297
 307	 2292
 307	 2293
 307	 2294
 307	 2295
 307	 2296
 307	 2297
 308	 2292
 308	 2293
 308	 2294
 308	 2295
 308	 2296
 308	 2297
 309	 2290
 309	 2291
 309	 2292
 309	 2293
 309	 2294
 309	 2295
 309	 2296
 310	 2288
 310	 2289
 310	 2290
 310	 2291
 310	 2292
 310	 2293
 310	 2294
 311	 2287
 311	 2288
 311	 2289
 311	 2290
 311	 2291
 311	 2292
 311	 2293
 311	 2294
 312	 2287
 312	 2288
 312	 2289
 312	 2290
 312	 2291
 312	 2292
 313	 2287
 313	 2288
 313	 2289
 313	 2290
 313	 2291
 313	 2292
 314	 2286
 314	 2287
 314	 2288
 314	 2289
 314	 2290
 314	 2291
 315	 2285
 315	 2286
 315	 2287
 315	 2288
 315	 2289
 315	 2290
 315	 2291
 315	 2292
 316	 2285
 316	 2286
 316	 2287
 316	 2288
 316	 2289
 316	 2290
 316	 2291
 316	 2292
 317	 2284
 317	 2285
 317	 2286
 317	 2287
 317	 2288
 317	 2289
 317	 2290
 317	 2291
 318	 2284
 318	 2285
 318	 2286
 318	 2287
 318	 2288
 318	 2289
 319	 2283
 319	 2284
 319	 2285
 319	 2286
 319	 2287
 320	 2282
 320	 2283
 320	 2284
 320	 2285
 320	 2286
 320	 2287
 321	 2282
 321	 2283
 321	 2284
 321	 2285
 321	 2286
 322	 2282
 322	 2283
 322	 2284
 322	 2285
 322	 2286
 322	 2287
 323	 2282
 323	 2283
 323	 2284
 323	 2285
 323	 2286
 324	 2282
 324	 2283
 324	 2284
 324	 2285
 325	 2282
 325	 2283
 325	 2284
 325	 2285
 326	 2281
 326	 2282
 326	 2283
 326	 2284
 326	 2285
 327	 2281
 327	 2282
 327	 2283
 327	 2284
 328	 2281
 328	 2282
 328	 2283
 328	 2284
 329	 2280
 329	 2281
 329	 2282
 329	 2283
 330	 2280
 330	 2281
 330	 2282
 330	 2283
 331	 2280
 331	 2281
 331	 2282
 331	 2283
 332	 2280
 332	 2281
 332	 2282
 332	 2283
 332	 2284
 333	 2280
 333	 2281
 333	 2282
 333	 2283
 333	 2284
 334	 2280
 334	 2281
 334	 2282
 334	 2283
 334	 2284
 335	 2282
 335	 2283
 335	 2284
 336	 2282
 336	 2283
 336	 2284
 337	 2282
 337	 2283
 337	 2284
 338	 2282
 338	 2283
 338	 2284
 339	 2282
 339	 2283
 339	 2284
 339	 2285
 340	 2282
 340	 2283
 340	 2284
 340	 2285
 340	 2286
 341	 2282
 341	 2283
 341	 2284
 341	 2285
 341	 2286
 341	 2287
 342	 2283
 342	 2284
 342	 2285
 342	 2286
 342	 2287
 342	 2288
 342	 2289
 342	 2290
 343	 2284
 343	 2285
 343	 2286
 343	 2287
 343	 2288
 343	 2289
 343	 2290
 343	 2291
 343	 2292
 344	 2284
 344	 2285
 344	 2286
 344	 2287
 344	 2288
 344	 2289
 344	 2290
 344	 2291
 345	 2285
 345	 2286
 345	 2287
 345	 2288
 345	 2289
 346	 2286
 346	 2287
 346	 2288
 346	 2289
 346	 2290
 346	 2291
 347	 2287
 347	 2288
 347	 2289
 347	 2290
 347	 2291
 347	 2292
 347	 2293
 347	 2294
 348	 2287
 348	 2288
 348	 2289
 348	 2290
 348	 2291
 348	 2292
 348	 2293
 348	 2294
 349	 2288
 349	 2289
 349	 2290
 349	 2291
 349	 2292
 349	 2293
 349	 2294
 350	 2291
 350	 2292
 350	 2293
 350	 2294
 350	 2295
 350	 2296
 351	 2291
 351	 2292
 351	 2293
 351	 2294
 351	 2295
 351	 2296
 351	 2297
 352	 2292
 352	 2293
 352	 2294
 352	 2295
 352	 2296
 352	 2297
 352	 2298
 352	 2299
 353	 2294
 353	 2295
 353	 2296
 353	 2297
 353	 2298
 353	 2299
 353	 2300
 354	 2295
 354	 2296
 354	 2297
 354	 2298
 354	 2299
 354	 2300
 355	 2297
 355	 2298
 355	 2299
 355	 2300
 355	 2301
 356	 2297
 356	 2298
 356	 2299
 356	 2300
 356	 2301
 357	 2298
 357	 2299
 357	 2300
 357	 2301
 357	 2302
 357	 2303
 358	 2298
 358	 2299
 358	 2300
 358	 2301
 358	 2302
 358	 2303
 359	 2299
 359	 2300
 359	 2301
 359	 2302
 359	 2303
 359	 2304
 360	 2301
 360	 2302
 360	 2303
 360	 2304
 360	 2305
 360	 2306
 361	 2301
 361	 2302
 361	 2303
 361	 2304
 361	 2305
 361	 2306
 361	 2307
 361	 2308
 362	 2302
 362	 2303
 362	 2304
 362	 2305
 362	 2306
 362	 2307
 362	 2308
 362	 2309
 363	 2304
 363	 2305
 363	 2306
 363	 2307
 363	 2308
 363	 2309
 363	 2310
 364	 2305
 364	 2306
 364	 2307
 364	 2308
 364	 2309
 364	 2310
 365	 2307
 365	 2308
 365	 2309
 365	 2310
 365	 2311
 365	 2312
 366	 2307
 366	 2308
 366	 2309
 366	 2310
 366	 2311
 366	 2312
 366	 2313
 367	 2308
 367	 2309
 367	 2310
 367	 2311
 367	 2312
 367	 2313
 367	 2314
 367	 2315
 368	 2310
 368	 2311
 368	 2312
 368	 2313
 368	 2314
 368	 2315
 369	 2311
 369	 2312
 369	 2313
 369	 2314
 369	 2315
 370	 2312
 370	 2313
 370	 2314
 370	 2315
 370	 2316
 371	 2312
 371	 2313
 371	 2314
 371	 2315
 371	 2316
 372	 2311
 372	 2312
 372	 2313
 372	 2314
 372	 2315
 372	 2316
 373	 2311
 373	 2312
 373	 2313
 373	 2314
 373	 2315
 373	 2316
 374	 2311
 374	 2312
 374	 2313
 374	 2314
 374	 2315
 374	 2316
 374	 2317
 375	 2311
 375	 2312
 375	 2313
 375	 2314
 375	 2315
 375	 2316
 375	 2317
 375	 2318
 376	 2313
 376	 2314
 376	 2315
 376	 2316
 376	 2317
 377	 2313
 377	 2314
 377	 2315
 377	 2316
 377	 2317
 378	 2314
 378	 2315
 378	 2316
 378	 2317
 379	 2314
 379	 2315
 379	 2316
 379	 2317
 380	 2314
 380	 2315
 380	 2316
 380	 2317
 381	 2314
 381	 2315
 381	 2316
 381	 2317
 382	 2314
 382	 2315
 382	 2316
 382	 2317
 382	 2318
 383	 2314
 383	 2315
 383	 2316
 383	 2317
 383	 2318
 384	 2315
 384	 2316
 384	 2317
 384	 2318
 385	 2315
 385	 2316
 385	 2317
 385	 2318
 386	 2314
 386	 2315
 386	 2316
 386	 2317
 386	 2318
 387	 2314
 387	 2315
 387	 2316
 387	 2317
 387	 2318
 388	 2314
 388	 2315
 388	 2316
 388	 2317
 389	 2314
 389	 2315
 389	 2316
 389	 2317
 390	 2314
 390	 2315
 390	 2316
 390	 2317
 391	 2314
 391	 2315
 391	 2316
 391	 2317
 392	 2314
 392	 2315
 392	 2316
 392	 2317
 393	 2313
 393	 2314
 393	 2315
 393	 2316
 394	 2313
 394	 2314
 394	 2315
 394	 2316
 395	 2313
 395	 2314
 395	 2315
 395	 2316
 396	 2313
 396	 2314
 396	 2315
 396	 2316
 396	 2317
 397	 2313
 397	 2314
 397	 2315
 397	 2316
 397	 2317
 398	 2313
 398	 2314
 398	 2315
 398	 2316
 398	 2317
 399	 2314
 399	 2315
 399	 2316
 399	 2317
 400	 2314
 400	 2315
 400	 2316
 400	 2317
 401	 2314
 401	 2315
 401	 2316
 401	 2317
 402	 2314
 402	 2315
 402	 2316
 402	 2317
 403	 2313
 403	 2314
 403	 2315
 403	 2316
 403	 2317
 404	 2313
 404	 2314
 404	 2315
 404	 2316
 404	 2317
 405	 2314
 405	 2315
 405	 2316
 405	 2317
 406	 2314
 406	 2315
 406	 2316
 406	 2317
 406	 2318
 407	 2314
 407	 2315
 407	 2316
 407	 2317
 407	 2318
 408	 2315
 408	 2316
 408	 2317
 408	 2318
 409	 2315
 409	 2316
 409	 2317
 409	 2318
 409	 2319
 410	 2315
 410	 2316
 410	 2317
 410	 2318
 410	 2319
 411	 2316
 411	 2317
 411	 2318
 411	 2319
 411	 2320
 412	 2316
 412	 2317
 412	 2318
 412	 2319
 412	 2320
 413	 2316
 413	 2317
 413	 2318
 413	 2319
 413	 2320
 414	 2316
 414	 2317
 414	 2318
 414	 2319
 414	 2320
 415	 2316
 415	 2317
 415	 2318
 415	 2319
 415	 2320
 416	 2316
 416	 2317
 416	 2318
 416	 2319
 416	 2320
 417	 2317
 417	 2318
 417	 2319
 417	 2320
 418	 2317
 418	 2318
 418	 2319
 418	 2320
 419	 2317
 419	 2318
 419	 2319
 419	 2320
 420	 2317
 420	 2318
 420	 2319
 420	 2320
 421	 2317
 421	 2318
 421	 2319
 421	 2320
 422	 2317
 422	 2318
 422	 2319
 422	 2320
 423	 2317
 423	 2318
 423	 2319
 423	 2320
 424	 2316
 424	 2317
 424	 2318
 424	 2319
 424	 2320
 425	 2315
 425	 2316
 425	 2317
 425	 2318
 425	 2319
 425	 2320
 426	 2314
 426	 2315
 426	 2316
 426	 2317
 426	 2318
 426	 2319
 426	 2320
 427	 2314
 427	 2315
 427	 2316
 427	 2317
 427	 2318
 428	 2314
 428	 2315
 428	 2316
 428	 2317
 428	 2318
 429	 2313
 429	 2314
 429	 2315
 429	 2316
 430	 2312
 430	 2313
 430	 2314
 430	 2315
 430	 2316
 431	 2311
 431	 2312
 431	 2313
 431	 2314
 431	 2315
 431	 2316
 432	 2310
 432	 2311
 432	 2312
 432	 2313
 432	 2314
 432	 2315
 433	 2310
 433	 2311
 433	 2312
 433	 2313
 433	 2314
 433	 2315
 433	 2316
 434	 2310
 434	 2311
 434	 2312
 434	 2313
 434	 2314
 434	 2315
 435	 2310
 435	 2311
 435	 2312
 435	 2313
 436	 2308
 436	 2309
 436	 2310
 436	 2311
 436	 2312
 436	 2313
 437	 2308
 437	 2309
 437	 2310
 437	 2311
 437	 2312
 437	 2313
 438	 2308
 438	 2309
 438	 2310
 438	 2311
 438	 2312
 438	 2313
 439	 2308
 439	 2309
 439	 2310
 439	 2311
 439	 2312
 440	 2308
 440	 2309
 440	 2310
 440	 2311
 440	 2312
 440	 2313
 441	 2308
 441	 2309
 441	 2310
 441	 2311
 441	 2312
 442	 2308
 442	 2309
 442	 2310
 442	 2311
 442	 2312
 442	 2313
 442	 2314
 442	 2315
 442	 2316
 443	 2308
 443	 2309
 443	 2310
 443	 2311
 443	 2312
 443	 2313
 443	 2314
 443	 2315
 443	 2316
 443	 2317
 443	 2318
 443	 2319
 443	 2320
 443	 2321
 444	 2308
 444	 2309
 444	 2310
 444	 2311
 444	 2312
 444	 2313
 444	 2314
 444	 2315
 444	 2316
 444	 2317
 444	 2318
 444	 2319
 444	 2320
 444	 2321
 444	 2322
 444	 2323
 444	 2324
 444	 2325
 445	 2312
 445	 2313
 445	 2314
 445	 2315
 445	 2316
 445	 2317
 445	 2318
 445	 2319
 445	 2320
 445	 2321
 445	 2322
 445	 2323
 445	 2324
 445	 2325
 445	 2326
 445	 2327
 445	 2328
 445	 2329
 445	 2330
 445	 2331
 445	 2332
 445	 2333
 446	 2317
 446	 2318
 446	 2319
 446	 2320
 446	 2321
 446	 2322
 446	 2323
 446	 2324
 446	 2325
 446	 2326
 446	 2327
 446	 2328
 446	 2329
 446	 2330
 446	 2331
 446	 2332
 446	 2333
 446	 2334
 446	 2335
 446	 2336
 446	 2337
 447	 2321
 447	 2322
 447	 2323
 447	 2324
 447	 2325
 447	 2326
 447	 2327
 447	 2328
 447	 2329
 447	 2330
 447	 2331
 447	 2332
 447	 2333
 447	 2334
 447	 2335
 447	 2336
 447	 2337
 447	 2338
 447	 2339
 448	 2326
 448	 2327
 448	 2328
 448	 2329
 448	 2330
 448	 2331
 448	 2332
 448	 2333
 448	 2334
 448	 2335
 448	 2336
 448	 2337
 448	 2338
 448	 2339
 448	 2340
 448	 2341
 449	 2335
 449	 2336
 449	 2337
 449	 2338
 449	 2339
 449	 2340
 449	 2341
 450	 2337
 450	 2338
 450	 2339
 450	 2340
 450	 2341
 451	 2338
 451	 2339
 451	 2340
 451	 2341
 451	 2342
 452	 2338
 452	 2339
 452	 2340
 452	 2341
 452	 2342
 452	 2343
 453	 2338
 453	 2339
 453	 2340
 453	 2341
 453	 2342
 453	 2343
 454	 2340
 454	 2341
 454	 2342
 454	 2343
 455	 2341
 455	 2342
 455	 2343
 456	 2341
 456	 2342
 456	 2343
 457	 2341
 457	 2342
 457	 2343
 458	 2341
 458	 2342
 458	 2343
 458	 2344
 459	 2341
 459	 2342
 459	 2343
 459	 2344
 459	 2345
 460	 2341
 460	 2342
 460	 2343
 460	 2344
 460	 2345
 461	 2342
 461	 2343
 461	 2344
 461	 2345
 461	 2346
 462	 2341
 462	 2342
 462	 2343
 462	 2344
 462	 2345
 462	 2346
 463	 2341
 463	 2342
 463	 2343
 463	 2344
 463	 2345
 463	 2346
 464	 2341
 464	 2342
 464	 2343
 464	 2344
 464	 2345
 465	 2341
 465	 2342
 465	 2343
 465	 2344
 465	 2345
 466	 2341
 466	 2342
 466	 2343
 466	 2344
 466	 2345
 466	 2346
 467	 2341
 467	 2342
 467	 2343
 467	 2344
 467	 2345
 467	 2346
 467	 2347
 468	 2343
 468	 2344
 468	 2345
 468	 2346
 468	 2347
 469	 2342
 469	 2343
 469	 2344
 469	 2345
 469	 2346
 469	 2347
 470	 2342
 470	 2343
 470	 2344
 470	 2345
 470	 2346
 470	 2347
 471	 2340
 471	 2341
 471	 2342
 471	 2343
 471	 2344
 471	 2345
 471	 2346
 472	 2338
 472	 2339
 472	 2340
 472	 2341
 472	 2342
 472	 2343
 472	 2344
 472	 2345
 473	 2338
 473	 2339
 473	 2340
 473	 2341
 473	 2342
 473	 2343
 473	 2344
 474	 2338
 474	 2339
 474	 2340
 474	 2341
 474	 2342
 474	 2343
 475	 2337
 475	 2338
 475	 2339
 475	 2340
 475	 2341
 475	 2342
 476	 2335
 476	 2336
 476	 2337
 476	 2338
 476	 2339
 476	 2340
 476	 2341
 477	 2335
 477	 2336
 477	 2337
 477	 2338
 477	 2339
 477	 2340
 478	 2335
 478	 2336
 478	 2337
 478	 2338
 478	 2339
 479	 2334
 479	 2335
 479	 2336
 479	 2337
 479	 2338
 480	 2333
 480	 2334
 480	 2335
 480	 2336
 480	 2337
 480	 2338
 481	 2332
 481	 2333
 481	 2334
 481	 2335
 481	 2336
 481	 2337
 482	 2330
 482	 2331
 482	 2332
 482	 2333
 482	 2334
 482	 2335
 482	 2336
 483	 2323
 483	 2324
 483	 2325
 483	 2326
 483	 2327
 483	 2328
 483	 2329
 483	 2330
 483	 2331
 483	 2332
 483	 2333
 483	 2334
 483	 2335
 484	 2314
 484	 2315
 484	 2316
 484	 2317
 484	 2318
 484	 2319
 484	 2320
 484	 2321
 484	 2322
 484	 2323
 484	 2324
 484	 2325
 484	 2326
 484	 2327
 484	 2328
 484	 2329
 484	 2330
 484	 2331
 484	 2332
 484	 2333
 484	 2334
 485	 2309
 485	 2310
 485	 2311
 485	 2312
 485	 2313
 485	 2314
 485	 2315
 485	 2316
 485	 2317
 485	 2318
 485	 2319
 485	 2320
 485	 2321
 485	 2322
 485	 2323
 485	 2324
 485	 2325
 485	 2326
 485	 2327
 485	 2328
 485	 2329
 485	 2330
 485	 2331
 485	 2332
 485	 2333
 485	 2334
 485	 2335
 486	 2311
 486	 2312
 486	 2313
 486	 2314
 486	 2315
 486	 2316
 486	 2317
 486	 2318
 486	 2319
 486	 2320
 486	 2321
 486	 2322
 486	 2323
 486	 2324
 486	 2325
 486	 2326
 486	 2327
 486	 2328
 486	 2329
 486	 2330
 486	 2331
 486	 2332
 486	 2333
 486	 2334
 486	 2335
 486	 2336
 486	 2337
 486	 2338
 487	 2318
 487	 2319
 487	 2320
 487	 2321
 487	 2322
 487	 2323
 487	 2324
 487	 2325
 487	 2326
 487	 2327
 487	 2328
 487	 2329
 487	 2330
 487	 2331
 487	 2332
 487	 2333
 487	 2334
 487	 2335
 487	 2336
 487	 2337
 487	 2338
 488	 2315
 488	 2316
 488	 2317
 488	 2318
 488	 2319
 488	 2320
 488	 2321
 488	 2322
 488	 2323
 488	 2324
 488	 2325
 488	 2326
 488	 2327
 488	 2328
 488	 2329
 488	 2330
 488	 2331
 488	 2332
 488	 2333
 488	 2334
 488	 2335
 488	 2336
 488	 2337
 488	 2338
 489	 2312
 489	 2313
 489	 2314
 489	 2315
 489	 2316
 489	 2317
 489	 2318
 489	 2319
 489	 2320
 489	 2321
 489	 2322
 489	 2323
 489	 2324
 489	 2325
 489	 2326
 489	 2327
 489	 2328
 489	 2329
 489	 2330
 489	 2331
 489	 2332
 489	 2333
 489	 2334
 489	 2335
 489	 2336
 489	 2337
 489	 2338
 490	 2318
 490	 2319
 490	 2320
 490	 2321
 490	 2322
 490	 2323
 490	 2324
 490	 2325
 490	 2326
 490	 2327
 490	 2328
 490	 2329
 490	 2330
 491	 2323
 491	 2324
 491	 2325
 491	 2326
 491	 2327
 491	 2328
 491	 2329
 491	 2330
 492	 2321
 492	 2322
 492	 2323
 492	 2324
 492	 2325
 492	 2326
 492	 2327
 492	 2328
 492	 2329
 492	 2330
 493	 2318
 493	 2319
 493	 2320
 493	 2321
 493	 2322
 493	 2323
 493	 2324
 493	 2325
 493	 2326
 493	 2327
 494	 2318
 494	 2319
 494	 2320
 494	 2321
 494	 2322
 494	 2323
 494	 2324
 494	 2325
 495	 2317
 495	 2318
 495	 2319
 495	 2320
 495	 2321
 495	 2322
 495	 2323
 495	 2324
 496	 2315
 496	 2316
 496	 2317
 496	 2318
 496	 2319
 496	 2320
 496	 2321
 496	 2322
 496	 2323
 497	 2315
 497	 2316
 497	 2317
 497	 2318
 497	 2319
 497	 2320
 497	 2321
 497	 2322
 498	 2316
 498	 2317
 498	 2318
 498	 2319
 498	 2320
 499	 2317
 499	 2318
 499	 2319
 499	 2320
 500	 2316
 500	 2317
 500	 2318
 500	 2319
 500	 2320
 500	 2321
 500	 2322
 501	 2315
 501	 2316
 501	 2317
 501	 2318
 501	 2319
 501	 2320
 501	 2321
 501	 2322
 501	 2323
 501	 2324
 502	 2317
 502	 2318
 502	 2319
 502	 2320
 502	 2321
 502	 2322
 502	 2323
 502	 2324
 503	 2320
 503	 2321
 503	 2322
 503	 2323
 503	 2324
 504	 2319
 504	 2320
 504	 2321
 504	 2322
 504	 2323
 504	 2324
 505	 2318
 505	 2319
 505	 2320
 505	 2321
 505	 2322
 505	 2323
 506	 2316
 506	 2317
 506	 2318
 506	 2319
 506	 2320
 506	 2321
 506	 2322
 507	 2314
 507	 2315
 507	 2316
 507	 2317
 507	 2318
 507	 2319
 507	 2320
 507	 2321
 507	 2322
 508	 2313
 508	 2314
 508	 2315
 508	 2316
 508	 2317
 508	 2318
 508	 2319
 508	 2320
 509	 2313
 509	 2314
 509	 2315
 509	 2316
 509	 2317
 509	 2318
 509	 2319
 509	 2320
 509	 2321
 510	 2315
 510	 2316
 510	 2317
 510	 2318
 510	 2319
 510	 2320
 510	 2321
 510	 2322
 510	 2323
 510	 2324
 510	 2325
 510	 2326
 511	 2317
 511	 2318
 511	 2319
 511	 2320
 511	 2321
 511	 2322
 511	 2323
 511	 2324
 511	 2325
 511	 2326
 511	 2327
 511	 2328
 511	 2329
 512	 2319
 512	 2320
 512	 2321
 512	 2322
 512	 2323
 512	 2324
 512	 2325
 512	 2326
 512	 2327
 512	 2328
 512	 2329
 512	 2330
 512	 2331
 512	 2332
 513	 2321
 513	 2322
 513	 2323
 513	 2324
 513	 2325
 513	 2326
 513	 2327
 513	 2328
 513	 2329
 513	 2330
 513	 2331
 513	 2332
 513	 2333
 513	 2334
 513	 2335
 513	 2336
 514	 2327
 514	 2328
 514	 2329
 514	 2330
 514	 2331
 514	 2332
 514	 2333
 514	 2334
 514	 2335
 514	 2336
 514	 2337
 514	 2338
 514	 2339
 515	 2329
 515	 2330
 515	 2331
 515	 2332
 515	 2333
 515	 2334
 515	 2335
 515	 2336
 515	 2337
 515	 2338
 515	 2339
 515	 2340
 516	 2333
 516	 2334
 516	 2335
 516	 2336
 516	 2337
 516	 2338
 516	 2339
 516	 2340
 516	 2341
 517	 2337
 517	 2338
 517	 2339
 517	 2340
 517	 2341
 517	 2342
 518	 2338
 518	 2339
 518	 2340
 518	 2341
 518	 2342
 519	 2339
 519	 2340
 519	 2341
 519	 2342
 520	 2340
 520	 2341
 520	 2342
 520	 2343
 521	 2340
 521	 2341
 521	 2342
 521	 2343
 521	 2344
 521	 2345
 522	 2340
 522	 2341
 522	 2342
 522	 2343
 522	 2344
 522	 2345
 523	 2340
 523	 2341
 523	 2342
 523	 2343
 523	 2344
 523	 2345
 523	 2346
 523	 2347
 523	 2348
 524	 2341
 524	 2342
 524	 2343
 524	 2344
 524	 2345
 524	 2346
 524	 2347
 524	 2348
 524	 2349
 524	 2350
 525	 2343
 525	 2344
 525	 2345
 525	 2346
 525	 2347
 525	 2348
 525	 2349
 525	 2350
 525	 2351
 526	 2344
 526	 2345
 526	 2346
 526	 2347
 526	 2348
 526	 2349
 526	 2350
 526	 2351
 526	 2352
 526	 2353
 527	 2347
 527	 2348
 527	 2349
 527	 2350
 527	 2351
 527	 2352
 527	 2353
 527	 2354
 528	 2349
 528	 2350
 528	 2351
 528	 2352
 528	 2353
 528	 2354
 528	 2355
 528	 2356
 529	 2347
 529	 2348
 529	 2349
 529	 2350
 529	 2351
 529	 2352
 529	 2353
 529	 2354
 529	 2355
 529	 2356
 530	 2345
 530	 2346
 530	 2347
 530	 2348
 530	 2349
 530	 2350
 530	 2351
 530	 2352
 530	 2353
 530	 2354
 530	 2355
 531	 2343
 531	 2344
 531	 2345
 531	 2346
 531	 2347
 531	 2348
 531	 2349
 531	 2350
 531	 2351
 531	 2352
 531	 2353
 531	 2354
 532	 2342
 532	 2343
 532	 2344
 532	 2345
 532	 2346
 532	 2347
 532	 2348
 532	 2349
 532	 2350
 532	 2351
 532	 2352
 532	 2353
 532	 2354
 532	 2355
 532	 2356
 532	 2357
 532	 2358
 532	 2359
 532	 2360
 532	 2361
 532	 2362
 533	 2345
 533	 2346
 533	 2347
 533	 2348
 533	 2349
 533	 2350
 533	 2351
 533	 2352
 533	 2353
 533	 2354
 533	 2355
 533	 2356
 533	 2357
 533	 2358
 533	 2359
 533	 2360
 533	 2361
 533	 2362
 533	 2363
 533	 2364
 533	 2365
 533	 2366
 533	 2367
 533	 2368
 533	 2369
 533	 2370
 534	 2349
 534	 2350
 534	 2351
 534	 2352
 534	 2353
 534	 2354
 534	 2355
 534	 2356
 534	 2357
 534	 2358
 534	 2359
 534	 2360
 534	 2361
 534	 2362
 534	 2363
 534	 2364
 534	 2365
 534	 2366
 534	 2367
 534	 2368
 534	 2369
 534	 2370
 534	 2371
 534	 2372
 534	 2373
 534	 2374
 534	 2375
 534	 2376
 534	 2377
 535	 2356
 535	 2357
 535	 2358
 535	 2359
 535	 2360
 535	 2361
 535	 2362
 535	 2363
 535	 2364
 535	 2365
 535	 2366
 535	 2367
 535	 2368
 535	 2369
 535	 2370
 535	 2371
 535	 2372
 535	 2373
 535	 2374
 535	 2375
 535	 2376
 535	 2377
 535	 2378
 535	 2379
 535	 2380
 535	 2381
 535	 2382
 535	 2383
 535	 2384
 535	 2385
 536	 2364
 536	 2365
 536	 2366
 536	 2367
 536	 2368
 536	 2369
 536	 2370
 536	 2371
 536	 2372
 536	 2373
 536	 2374
 536	 2375
 536	 2376
 536	 2377
 536	 2378
 536	 2379
 536	 2380
 536	 2381
 536	 2382
 536	 2383
 536	 2384
 536	 2385
 536	 2386
 536	 2387
 536	 2388
 536	 2389
 536	 2390
 536	 2391
 536	 2392
 537	 2372
 537	 2373
 537	 2374
 537	 2375
 537	 2376
 537	 2377
 537	 2378
 537	 2379
 537	 2380
 537	 2381
 537	 2382
 537	 2383
 537	 2384
 537	 2385
 537	 2386
 537	 2387
 537	 2388
 537	 2389
 537	 2390
 537	 2391
 537	 2392
 537	 2393
 537	 2394
 537	 2395
 537	 2396
 537	 2397
 537	 2398
 537	 2399
 537	 2400
 537	 2401
 537	 2402
 538	 2378
 538	 2379
 538	 2380
 538	 2381
 538	 2382
 538	 2383
 538	 2384
 538	 2385
 538	 2386
 538	 2387
 538	 2388
 538	 2389
 538	 2390
 538	 2391
 538	 2392
 538	 2393
 538	 2394
 538	 2395
 538	 2396
 538	 2397
 538	 2398
 538	 2399
 538	 2400
 538	 2401
 538	 2402
 538	 2403
 538	 2404
 538	 2405
 538	 2406
 538	 2407
 538	 2408
 538	 2409
 538	 2410
 538	 2411
 538	 2412
 538	 2413
 539	 2387
 539	 2388
 539	 2389
 539	 2390
 539	 2391
 539	 2392
 539	 2393
 539	 2394
 539	 2395
 539	 2396
 539	 2397
 539	 2398
 539	 2399
 539	 2400
 539	 2401
 539	 2402
 539	 2403
 539	 2404
 539	 2405
 539	 2406
 539	 2407
 539	 2408
 539	 2409
 539	 2410
 539	 2411
 539	 2412
 539	 2413
 539	 2414
 539	 2415
 539	 2416
 539	 2417
 539	 2418
 539	 2419
 539	 2420
 540	 2394
 540	 2395
 540	 2396
 540	 2397
 540	 2398
 540	 2399
 540	 2400
 540	 2401
 540	 2402
 540	 2403
 540	 2404
 540	 2405
 540	 2406
 540	 2407
 540	 2408
 540	 2409
 540	 2410
 540	 2411
 540	 2412
 540	 2413
 540	 2414
 540	 2415
 540	 2416
 540	 2417
 540	 2418
 540	 2419
 540	 2420
 540	 2421
 540	 2422
 540	 2423
 540	 2424
 541	 2404
 541	 2405
 541	 2406
 541	 2407
 541	 2408
 541	 2409
 541	 2410
 541	 2411
 541	 2412
 541	 2413
 541	 2414
 541	 2415
 541	 2416
 541	 2417
 541	 2418
 541	 2419
 541	 2420
 541	 2421
 541	 2422
 541	 2423
 541	 2424
 542	 2414
 542	 2415
 542	 2416
 542	 2417
 542	 2418
 542	 2419
 542	 2420
 542	 2421
 542	 2422
 542	 2423
 543	 2411
 543	 2412
 543	 2413
 543	 2414
 543	 2415
 543	 2416
 543	 2417
 543	 2418
 543	 2419
 543	 2420
 543	 2421
 543	 2422
 544	 2409
 544	 2410
 544	 2411
 544	 2412
 544	 2413
 544	 2414
 544	 2415
 544	 2416
 544	 2417
 544	 2418
 544	 2419
 544	 2420
 544	 2421
 545	 2408
 545	 2409
 545	 2410
 545	 2411
 545	 2412
 545	 2413
 545	 2414
 545	 2415
 545	 2416
 545	 2417
 546	 2406
 546	 2407
 546	 2408
 546	 2409
 546	 2410
 546	 2411
 546	 2412
 546	 2413
 546	 2414
 547	 2399
 547	 2400
 547	 2401
 547	 2402
 547	 2403
 547	 2404
 547	 2405
 547	 2406
 547	 2407
 547	 2408
 547	 2409
 547	 2410
 547	 2411
 547	 2412
 547	 2413
 548	 2392
 548	 2393
 548	 2394
 548	 2395
 548	 2396
 548	 2397
 548	 2398
 548	 2399
 548	 2400
 548	 2401
 548	 2402
 548	 2403
 548	 2404
 548	 2405
 548	 2406
 548	 2407
 548	 2408
 548	 2409
 548	 2410
 548	 2411
 548	 2412
 549	 2390
 549	 2391
 549	 2392
 549	 2393
 549	 2394
 549	 2395
 549	 2396
 549	 2397
 549	 2398
 549	 2399
 549	 2400
 549	 2401
 549	 2402
 549	 2403
 549	 2404
 549	 2405
 549	 2406
 549	 2407
 549	 2408
 549	 2409
 549	 2410
 550	 2387
 550	 2388
 550	 2389
 550	 2390
 550	 2391
 550	 2392
 550	 2393
 550	 2394
 550	 2395
 550	 2396
 550	 2397
 550	 2398
 550	 2399
 550	 2400
 550	 2401
 550	 2402
 550	 2403
 550	 2404
 550	 2405
 551	 2382
 551	 2383
 551	 2384
 551	 2385
 551	 2386
 551	 2387
 551	 2388
 551	 2389
 551	 2390
 551	 2391
 551	 2392
 551	 2393
 551	 2394
 551	 2395
 551	 2396
 551	 2397
 552	 2377
 552	 2378
 552	 2379
 552	 2380
 552	 2381
 552	 2382
 552	 2383
 552	 2384
 552	 2385
 552	 2386
 552	 2387
 552	 2388
 552	 2389
 552	 2390
 552	 2391
 552	 2392
 553	 2373
 553	 2374
 553	 2375
 553	 2376
 553	 2377
 553	 2378
 553	 2379
 553	 2380
 553	 2381
 553	 2382
 553	 2383
 553	 2384
 553	 2385
 553	 2386
 553	 2387
 553	 2388
 553	 2389
 553	 2390
 554	 2368
 554	 2369
 554	 2370
 554	 2371
 554	 2372
 554	 2373
 554	 2374
 554	 2375
 554	 2376
 554	 2377
 554	 2378
 554	 2379
 554	 2380
 554	 2381
 554	 2382
 554	 2383
 554	 2384
 554	 2385
 554	 2386
 555	 2364
 555	 2365
 555	 2366
 555	 2367
 555	 2368
 555	 2369
 555	 2370
 555	 2371
 555	 2372
 555	 2373
 555	 2374
 555	 2375
 555	 2376
 555	 2377
 555	 2378
 555	 2379
 555	 2380
 555	 2381
 556	 2359
 556	 2360
 556	 2361
 556	 2362
 556	 2363
 556	 2364
 556	 2365
 556	 2366
 556	 2367
 556	 2368
 556	 2369
 556	 2370
 556	 2371
 556	 2372
 556	 2373
 556	 2374
 556	 2375
 556	 2376
 556	 2377
 557	 2353
 557	 2354
 557	 2355
 557	 2356
 557	 2357
 557	 2358
 557	 2359
 557	 2360
 557	 2361
 557	 2362
 557	 2363
 557	 2364
 557	 2365
 557	 2366
 557	 2367
 557	 2368
 557	 2369
 557	 2370
 557	 2371
 557	 2372
 558	 2345
 558	 2346
 558	 2347
 558	 2348
 558	 2349
 558	 2350
 558	 2351
 558	 2352
 558	 2353
 558	 2354
 558	 2355
 558	 2356
 558	 2357
 558	 2358
 558	 2359
 558	 2360
 558	 2361
 558	 2362
 558	 2363
 558	 2364
 558	 2365
 558	 2366
 558	 2367
 558	 2368
 559	 2336
 559	 2337
 559	 2338
 559	 2339
 559	 2340
 559	 2341
 559	 2342
 559	 2343
 559	 2344
 559	 2345
 559	 2346
 559	 2347
 559	 2348
 559	 2349
 559	 2350
 559	 2351
 559	 2352
 559	 2353
 559	 2354
 559	 2355
 559	 2356
 559	 2357
 559	 2358
 559	 2359
 559	 2360
 559	 2361
 559	 2362
 559	 2363
 560	 2330
 560	 2331
 560	 2332
 560	 2333
 560	 2334
 560	 2335
 560	 2336
 560	 2337
 560	 2338
 560	 2339
 560	 2340
 560	 2341
 560	 2342
 560	 2343
 560	 2344
 560	 2345
 560	 2346
 560	 2347
 560	 2348
 560	 2349
 560	 2350
 560	 2351
 560	 2352
 560	 2353
 560	 2354
 560	 2355
 560	 2356
 560	 2357
 560	 2358
 561	 2328
 561	 2329
 561	 2330
 561	 2331
 561	 2332
 561	 2333
 561	 2334
 561	 2335
 561	 2336
 561	 2337
 561	 2338
 561	 2339
 561	 2340
 561	 2341
 561	 2342
 561	 2343
 561	 2344
 561	 2345
 561	 2346
 561	 2347
 561	 2348
 561	 2349
 561	 2350
 561	 2351
 562	 2326
 562	 2327
 562	 2328
 562	 2329
 562	 2330
 562	 2331
 562	 2332
 562	 2333
 562	 2334
 562	 2335
 562	 2336
 562	 2337
 562	 2338
 562	 2339
 562	 2340
 562	 2341
 562	 2342
 562	 2343
 563	 2324
 563	 2325
 563	 2326
 563	 2327
 563	 2328
 563	 2329
 563	 2330
 563	 2331
 563	 2332
 563	 2333
 563	 2334
 563	 2335
 564	 2323
 564	 2324
 564	 2325
 564	 2326
 564	 2327
 564	 2328
 564	 2329
 564	 2330
 565	 2321
 565	 2322
 565	 2323
 565	 2324
 565	 2325
 565	 2326
 565	 2327
 565	 2328
 566	 2320
 566	 2321
 566	 2322
 566	 2323
 566	 2324
 566	 2325
 566	 2326
 567	 2321
 567	 2322
 567	 2323
 567	 2324
 567	 2325
 567	 2326
 568	 2321
 568	 2322
 568	 2323
 568	 2324
 568	 2325
 568	 2326
 569	 2321
 569	 2322
 569	 2323
 569	 2324
 569	 2325
 569	 2326
 569	 2327
 569	 2328
 570	 2321
 570	 2322
 570	 2323
 570	 2324
 570	 2325
 570	 2326
 570	 2327
 570	 2328
 570	 2329
 570	 2330
 571	 2324
 571	 2325
 571	 2326
 571	 2327
 571	 2328
 571	 2329
 571	 2330
 571	 2331
 572	 2326
 572	 2327
 572	 2328
 572	 2329
 572	 2330
 572	 2331
 573	 2324
 573	 2325
 573	 2326
 573	 2327
 573	 2328
 573	 2329
 573	 2330
 574	 2323
 574	 2324
 574	 2325
 574	 2326
 574	 2327
 574	 2328
 574	 2329
 574	 2330
 575	 2324
 575	 2325
 575	 2326
 575	 2327
 575	 2328
 575	 2329
 575	 2330
 575	 2331
 575	 2332
 576	 2326
 576	 2327
 576	 2328
 576	 2329
 576	 2330
 576	 2331
 576	 2332
 576	 2333
 577	 2328
 577	 2329
 577	 2330
 577	 2331
 577	 2332
 577	 2333
 577	 2334
 578	 2330
 578	 2331
 578	 2332
 578	 2333
 578	 2334
 579	 2331
 579	 2332
 579	 2333
 579	 2334
 580	 2331
 580	 2332
 580	 2333
 580	 2334
 581	 2330
 581	 2331
 581	 2332
 581	 2333
 581	 2334
 582	 2330
 582	 2331
 582	 2332
 582	 2333
 582	 2334
 583	 2328
 583	 2329
 583	 2330
 583	 2331
 583	 2332
 583	 2333
 584	 2328
 584	 2329
 584	 2330
 584	 2331
 584	 2332
 584	 2333
 585	 2327
 585	 2328
 585	 2329
 585	 2330
 585	 2331
 585	 2332
 586	 2327
 586	 2328
 586	 2329
 586	 2330
 587	 2327
 587	 2328
 587	 2329
 587	 2330
 588	 2327
 588	 2328
 588	 2329
 589	 2327
 589	 2328
 589	 2329
 590	 2325
 590	 2326
 590	 2327
 590	 2328
 590	 2329
 591	 2324
 591	 2325
 591	 2326
 591	 2327
 591	 2328
 591	 2329
 592	 2324
 592	 2325
 592	 2326
 592	 2327
 592	 2328
 592	 2329
 593	 2324
 593	 2325
 593	 2326
 593	 2327
 594	 2324
 594	 2325
 594	 2326
 594	 2327
 595	 2324
 595	 2325
 595	 2326
 595	 2327
 596	 2324
 596	 2325
 596	 2326
 596	 2327
 596	 2328
 597	 2324
 597	 2325
 597	 2326
 597	 2327
 597	 2328
 598	 2322
 598	 2323
 598	 2324
 598	 2325
 598	 2326
 598	 2327
 598	 2328
 599	 2322
 599	 2323
 599	 2324
 599	 2325
 599	 2326
 599	 2327
 599	 2328
 600	 2323
 600	 2324
 600	 2325
 600	 2326
 600	 2327
 601	 2323
 601	 2324
 601	 2325
 601	 2326
 601	 2327
 602	 2323
 602	 2324
 602	 2325
 602	 2326
 602	 2327
 603	 2323
 603	 2324
 603	 2325
 603	 2326
 604	 2322
 604	 2323
 604	 2324
 604	 2325
 604	 2326
 605	 2322
 605	 2323
 605	 2324
 605	 2325
 605	 2326
 606	 2322
 606	 2323
 606	 2324
 606	 2325
 607	 2322
 607	 2323
 607	 2324
 607	 2325
 608	 2321
 608	 2322
 608	 2323
 608	 2324
 608	 2325
 609	 2321
 609	 2322
 609	 2323
 609	 2324
 609	 2325
 610	 2321
 610	 2322
 610	 2323
 610	 2324
 611	 2320
 611	 2321
 611	 2322
 611	 2323
 611	 2324
 612	 2320
 612	 2321
 612	 2322
 612	 2323
 612	 2324
 613	 2320
 613	 2321
 613	 2322
 613	 2323
 613	 2324
 614	 2320
 614	 2321
 614	 2322
 614	 2323
 614	 2324
 615	 2320
 615	 2321
 615	 2322
 615	 2323
 615	 2324
 616	 2320
 616	 2321
 616	 2322
 616	 2323
 617	 2319
 617	 2320
 617	 2321
 617	 2322
 617	 2323
 618	 2318
 618	 2319
 618	 2320
 618	 2321
 618	 2322
 619	 2316
 619	 2317
 619	 2318
 619	 2319
 619	 2320
 619	 2321
 619	 2322
 620	 2315
 620	 2316
 620	 2317
 620	 2318
 620	 2319
 620	 2320
 620	 2321
 621	 2316
 621	 2317
 621	 2318
 621	 2319
 621	 2320
 622	 2314
 622	 2315
 622	 2316
 622	 2317
 622	 2318
 622	 2319
 622	 2320
 623	 2314
 623	 2315
 623	 2316
 623	 2317
 623	 2318
 623	 2319
 623	 2320
 624	 2314
 624	 2315
 624	 2316
 624	 2317
 624	 2318
 624	 2319
 624	 2320
 625	 2312
 625	 2313
 625	 2314
 625	 2315
 625	 2316
 625	 2317
 625	 2318
 625	 2319
 626	 2312
 626	 2313
 626	 2314
 626	 2315
 626	 2316
 626	 2317
 626	 2318
 627	 2312
 627	 2313
 627	 2314
 627	 2315
 627	 2316
 628	 2312
 628	 2313
 628	 2314
 628	 2315
 629	 2312
 629	 2313
 629	 2314
 629	 2315
 630	 2312
 630	 2313
 630	 2314
 630	 2315
 630	 2316
 631	 2312
 631	 2313
 631	 2314
 631	 2315
 631	 2316
 632	 2311
 632	 2312
 632	 2313
 632	 2314
 632	 2315
 633	 2310
 633	 2311
 633	 2312
 633	 2313
 633	 2314
 633	 2315
 634	 2310
 634	 2311
 634	 2312
 634	 2313
 634	 2314
 634	 2315
 635	 2309
 635	 2310
 635	 2311
 635	 2312
 635	 2313
 635	 2314
 635	 2315
 636	 2309
 636	 2310
 636	 2311
 636	 2312
 636	 2313
 636	 2314
 637	 2309
 637	 2310
 637	 2311
 637	 2312
 637	 2313
 638	 2309
 638	 2310
 638	 2311
 638	 2312
 638	 2313
 639	 2310
 639	 2311
 639	 2312
 639	 2313
 640	 2308
 640	 2309
 640	 2310
 640	 2311
 640	 2312
 640	 2313
 641	 2307
 641	 2308
 641	 2309
 641	 2310
 641	 2311
 641	 2312
 641	 2313
 642	 2307
 642	 2308
 642	 2309
 642	 2310
 642	 2311
 642	 2312
 643	 2307
 643	 2308
 643	 2309
 643	 2310
 644	 2306
 644	 2307
 644	 2308
 644	 2309
 645	 2306
 645	 2307
 645	 2308
 645	 2309
 646	 2306
 646	 2307
 646	 2308
 646	 2309
 647	 2306
 647	 2307
 647	 2308
 647	 2309
 647	 2310
 648	 2306
 648	 2307
 648	 2308
 648	 2309
 648	 2310
 649	 2306
 649	 2307
 649	 2308
 649	 2309
 649	 2310
 650	 2307
 650	 2308
 650	 2309
 650	 2310
 651	 2307
 651	 2308
 651	 2309
 651	 2310
 652	 2307
 652	 2308
 652	 2309
 652	 2310
 653	 2307
 653	 2308
 653	 2309
 653	 2310
 654	 2307
 654	 2308
 654	 2309
 654	 2310
 654	 2311
 655	 2307
 655	 2308
 655	 2309
 655	 2310
 655	 2311
 655	 2312
 656	 2307
 656	 2308
 656	 2309
 656	 2310
 656	 2311
 656	 2312
 657	 2309
 657	 2310
 657	 2311
 657	 2312
 657	 2313
 658	 2309
 658	 2310
 658	 2311
 658	 2312
 658	 2313
 658	 2314
 658	 2315
 659	 2310
 659	 2311
 659	 2312
 659	 2313
 659	 2314
 659	 2315
 659	 2316
 659	 2317
 660	 2312
 660	 2313
 660	 2314
 660	 2315
 660	 2316
 660	 2317
 660	 2318
 661	 2313
 661	 2314
 661	 2315
 661	 2316
 661	 2317
 661	 2318
 661	 2319
 662	 2313
 662	 2314
 662	 2315
 662	 2316
 662	 2317
 662	 2318
 662	 2319
 662	 2320
 663	 2312
 663	 2313
 663	 2314
 663	 2315
 663	 2316
 663	 2317
 663	 2318
 663	 2319
 663	 2320
 664	 2314
 664	 2315
 664	 2316
 664	 2317
 664	 2318
 664	 2319
 664	 2320
 665	 2317
 665	 2318
 665	 2319
 665	 2320
 665	 2321
 665	 2322
 666	 2317
 666	 2318
 666	 2319
 666	 2320
 666	 2321
 666	 2322
 666	 2323
 667	 2317
 667	 2318
 667	 2319
 667	 2320
 667	 2321
 667	 2322
 667	 2323
 667	 2324
 667	 2325
 668	 2320
 668	 2321
 668	 2322
 668	 2323
 668	 2324
 668	 2325
 668	 2326
 669	 2321
 669	 2322
 669	 2323
 669	 2324
 669	 2325
 669	 2326
 669	 2327
 669	 2328
 670	 2322
 670	 2323
 670	 2324
 670	 2325
 670	 2326
 670	 2327
 670	 2328
 670	 2329
 671	 2324
 671	 2325
 671	 2326
 671	 2327
 671	 2328
 671	 2329
 671	 2330
 671	 2331
 672	 2325
 672	 2326
 672	 2327
 672	 2328
 672	 2329
 672	 2330
 672	 2331
 672	 2332
 673	 2327
 673	 2328
 673	 2329
 673	 2330
 673	 2331
 673	 2332
 673	 2333
 674	 2328
 674	 2329
 674	 2330
 674	 2331
 674	 2332
 674	 2333
 674	 2334
 674	 2335
 675	 2330
 675	 2331
 675	 2332
 675	 2333
 675	 2334
 675	 2335
 675	 2336
 675	 2337
 676	 2331
 676	 2332
 676	 2333
 676	 2334
 676	 2335
 676	 2336
 676	 2337
 676	 2338
 677	 2333
 677	 2334
 677	 2335
 677	 2336
 677	 2337
 677	 2338
 677	 2339
 677	 2340
 677	 2341
 678	 2335
 678	 2336
 678	 2337
 678	 2338
 678	 2339
 678	 2340
 678	 2341
 678	 2342
 678	 2343
 679	 2336
 679	 2337
 679	 2338
 679	 2339
 679	 2340
 679	 2341
 679	 2342
 679	 2343
 680	 2338
 680	 2339
 680	 2340
 680	 2341
 680	 2342
 680	 2343
 680	 2344
 681	 2340
 681	 2341
 681	 2342
 681	 2343
 681	 2344
 681	 2345
 681	 2346
 682	 2341
 682	 2342
 682	 2343
 682	 2344
 682	 2345
 682	 2346
 682	 2347
 682	 2348
 683	 2343
 683	 2344
 683	 2345
 683	 2346
 683	 2347
 683	 2348
 683	 2349
 684	 2344
 684	 2345
 684	 2346
 684	 2347
 684	 2348
 684	 2349
 685	 2346
 685	 2347
 685	 2348
 685	 2349
 685	 2350
 686	 2347
 686	 2348
 686	 2349
 686	 2350
 686	 2351
 687	 2347
 687	 2348
 687	 2349
 687	 2350
 687	 2351
 687	 2352
 688	 2347
 688	 2348
 688	 2349
 688	 2350
 688	 2351
 688	 2352
 688	 2353
 689	 2349
 689	 2350
 689	 2351
 689	 2352
 689	 2353
 689	 2354
 689	 2355
 690	 2349
 690	 2350
 690	 2351
 690	 2352
 690	 2353
 690	 2354
 690	 2355
 690	 2356
 691	 2351
 691	 2352
 691	 2353
 691	 2354
 691	 2355
 691	 2356
 692	 2351
 692	 2352
 692	 2353
 692	 2354
 692	 2355
 693	 2352
 693	 2353
 693	 2354
 693	 2355
 694	 2352
 694	 2353
 694	 2354
 694	 2355
 695	 2352
 695	 2353
 695	 2354
 695	 2355
 696	 2352
 696	 2353
 696	 2354
 696	 2355
 697	 2353
 697	 2354
 697	 2355
 697	 2356
 698	 2353
 698	 2354
 698	 2355
 698	 2356
 699	 2353
 699	 2354
 699	 2355
 699	 2356
 700	 2353
 700	 2354
 700	 2355
 700	 2356
 701	 2353
 701	 2354
 701	 2355
 701	 2356
 702	 2352
 702	 2353
 702	 2354
 702	 2355
 702	 2356
 703	 2351
 703	 2352
 703	 2353
 703	 2354
 703	 2355
 703	 2356
 704	 2351
 704	 2352
 704	 2353
 704	 2354
 704	 2355
 705	 2350
 705	 2351
 705	 2352
 705	 2353
 705	 2354
 706	 2350
 706	 2351
 706	 2352
 706	 2353
 706	 2354
 707	 2350
 707	 2351
 707	 2352
 707	 2353
 708	 2350
 708	 2351
 708	 2352
 708	 2353
 708	 2354
 708	 2355
 709	 2350
 709	 2351
 709	 2352
 709	 2353
 709	 2354
 709	 2355
 710	 2351
 710	 2352
 710	 2353
 710	 2354
 711	 2351
 711	 2352
 711	 2353
 711	 2354
 712	 2351
 712	 2352
 712	 2353
 712	 2354
 713	 2351
 713	 2352
 713	 2353
 713	 2354
 714	 2351
 714	 2352
 714	 2353
 714	 2354
 715	 2349
 715	 2350
 715	 2351
 715	 2352
 715	 2353
 715	 2354
 716	 2349
 716	 2350
 716	 2351
 716	 2352
 716	 2353
 716	 2354
 717	 2349
 717	 2350
 717	 2351
 717	 2352
 717	 2353
 718	 2348
 718	 2349
 718	 2350
 718	 2351
 718	 2352
 719	 2347
 719	 2348
 719	 2349
 719	 2350
 719	 2351
 719	 2352
 719	 2353
 720	 2348
 720	 2349
 720	 2350
 720	 2351
 720	 2352
 720	 2353
 720	 2354
 721	 2350
 721	 2351
 721	 2352
 721	 2353
 721	 2354
 721	 2355
 721	 2356
 722	 2351
 722	 2352
 722	 2353
 722	 2354
 722	 2355
 722	 2356
 723	 2351
 723	 2352
 723	 2353
 723	 2354
 723	 2355
 723	 2356
 724	 2350
 724	 2351
 724	 2352
 724	 2353
 724	 2354
 724	 2355
 724	 2356
 725	 2351
 725	 2352
 725	 2353
 725	 2354
 725	 2355
 725	 2356
 726	 2353
 726	 2354
 726	 2355
 726	 2356
 727	 2353
 727	 2354
 727	 2355
 727	 2356
 727	 2357
 727	 2358
 728	 2353
 728	 2354
 728	 2355
 728	 2356
 728	 2357
 728	 2358
 729	 2354
 729	 2355
 729	 2356
 729	 2357
 729	 2358
 730	 2355
 730	 2356
 730	 2357
 730	 2358
 731	 2355
 731	 2356
 731	 2357
 731	 2358
 731	 2359
 732	 2355
 732	 2356
 732	 2357
 732	 2358
 732	 2359
 732	 2360
 733	 2356
 733	 2357
 733	 2358
 733	 2359
 733	 2360
 733	 2361
 734	 2357
 734	 2358
 734	 2359
 734	 2360
 734	 2361
 735	 2358
 735	 2359
 735	 2360
 735	 2361
 736	 2359
 736	 2360
 736	 2361
 737	 2359
 737	 2360
 737	 2361
 738	 2358
 738	 2359
 738	 2360
 738	 2361
 739	 2357
 739	 2358
 739	 2359
 739	 2360
 739	 2361
 740	 2356
 740	 2357
 740	 2358
 740	 2359
 740	 2360
 740	 2361
 741	 2355
 741	 2356
 741	 2357
 741	 2358
 741	 2359
 741	 2360
 742	 2354
 742	 2355
 742	 2356
 742	 2357
 742	 2358
 742	 2359
 743	 2353
 743	 2354
 743	 2355
 743	 2356
 743	 2357
 743	 2358
 744	 2351
 744	 2352
 744	 2353
 744	 2354
 744	 2355
 744	 2356
 744	 2357
 745	 2349
 745	 2350
 745	 2351
 745	 2352
 745	 2353
 745	 2354
 745	 2355
 745	 2356
 746	 2348
 746	 2349
 746	 2350
 746	 2351
 746	 2352
 746	 2353
 746	 2354
 746	 2355
 747	 2347
 747	 2348
 747	 2349
 747	 2350
 747	 2351
 747	 2352
 747	 2353
 747	 2354
 748	 2345
 748	 2346
 748	 2347
 748	 2348
 748	 2349
 748	 2350
 748	 2351
 749	 2344
 749	 2345
 749	 2346
 749	 2347
 749	 2348
 749	 2349
 749	 2350
 750	 2343
 750	 2344
 750	 2345
 750	 2346
 750	 2347
 750	 2348
 750	 2349
 751	 2342
 751	 2343
 751	 2344
 751	 2345
 751	 2346
 751	 2347
 752	 2340
 752	 2341
 752	 2342
 752	 2343
 752	 2344
 752	 2345
 753	 2340
 753	 2341
 753	 2342
 753	 2343
 753	 2344
 754	 2340
 754	 2341
 754	 2342
 754	 2343
 754	 2344
 754	 2345
 755	 2339
 755	 2340
 755	 2341
 755	 2342
 755	 2343
 755	 2344
 755	 2345
 755	 2346
 756	 2337
 756	 2338
 756	 2339
 756	 2340
 756	 2341
 756	 2342
 756	 2343
 756	 2344
 756	 2345
 757	 2336
 757	 2337
 757	 2338
 757	 2339
 757	 2340
 757	 2341
 757	 2342
 757	 2343
 758	 2336
 758	 2337
 758	 2338
 758	 2339
 758	 2340
 758	 2341
 758	 2342
 758	 2343
 759	 2336
 759	 2337
 759	 2338
 759	 2339
 759	 2340
 759	 2341
 759	 2342
 759	 2343
 759	 2344
 759	 2345
 759	 2346
 759	 2347
 759	 2348
 760	 2336
 760	 2337
 760	 2338
 760	 2339
 760	 2340
 760	 2341
 760	 2342
 760	 2343
 760	 2344
 760	 2345
 760	 2346
 760	 2347
 760	 2348
 760	 2349
 760	 2350
 760	 2351
 760	 2352
 760	 2353
 761	 2339
 761	 2340
 761	 2341
 761	 2342
 761	 2343
 761	 2344
 761	 2345
 761	 2346
 761	 2347
 761	 2348
 761	 2349
 761	 2350
 761	 2351
 761	 2352
 761	 2353
 761	 2354
 761	 2355
 761	 2356
 761	 2357
 761	 2358
 761	 2359
 762	 2344
 762	 2345
 762	 2346
 762	 2347
 762	 2348
 762	 2349
 762	 2350
 762	 2351
 762	 2352
 762	 2353
 762	 2354
 762	 2355
 762	 2356
 762	 2357
 762	 2358
 762	 2359
 762	 2360
 762	 2361
 762	 2362
 762	 2363
 762	 2364
 762	 2365
 762	 2366
 763	 2349
 763	 2350
 763	 2351
 763	 2352
 763	 2353
 763	 2354
 763	 2355
 763	 2356
 763	 2357
 763	 2358
 763	 2359
 763	 2360
 763	 2361
 763	 2362
 763	 2363
 763	 2364
 763	 2365
 763	 2366
 763	 2367
 763	 2368
 763	 2369
 763	 2370
 763	 2371
 764	 2354
 764	 2355
 764	 2356
 764	 2357
 764	 2358
 764	 2359
 764	 2360
 764	 2361
 764	 2362
 764	 2363
 764	 2364
 764	 2365
 764	 2366
 764	 2367
 764	 2368
 764	 2369
 764	 2370
 764	 2371
 764	 2372
 764	 2373
 765	 2360
 765	 2361
 765	 2362
 765	 2363
 765	 2364
 765	 2365
 765	 2366
 765	 2367
 765	 2368
 765	 2369
 765	 2370
 765	 2371
 765	 2372
 765	 2373
 765	 2374
 765	 2375
 766	 2367
 766	 2368
 766	 2369
 766	 2370
 766	 2371
 766	 2372
 766	 2373
 766	 2374
 766	 2375
 767	 2367
 767	 2368
 767	 2369
 767	 2370
 767	 2371
 767	 2372
 767	 2373
 767	 2374
 768	 2366
 768	 2367
 768	 2368
 768	 2369
 768	 2370
 768	 2371
 768	 2372
 769	 2366
 769	 2367
 769	 2368
 769	 2369
 769	 2370
 769	 2371
 769	 2372
 770	 2365
 770	 2366
 770	 2367
 770	 2368
 770	 2369
 770	 2370
 771	 2363
 771	 2364
 771	 2365
 771	 2366
 771	 2367
 771	 2368
 772	 2361
 772	 2362
 772	 2363
 772	 2364
 772	 2365
 772	 2366
 772	 2367
 772	 2368
 773	 2357
 773	 2358
 773	 2359
 773	 2360
 773	 2361
 773	 2362
 773	 2363
 773	 2364
 773	 2365
 773	 2366
 773	 2367
 774	 2353
 774	 2354
 774	 2355
 774	 2356
 774	 2357
 774	 2358
 774	 2359
 774	 2360
 774	 2361
 774	 2362
 774	 2363
 774	 2364
 774	 2365
 775	 2349
 775	 2350
 775	 2351
 775	 2352
 775	 2353
 775	 2354
 775	 2355
 775	 2356
 775	 2357
 775	 2358
 775	 2359
 775	 2360
 775	 2361
 775	 2362
 775	 2363
 776	 2344
 776	 2345
 776	 2346
 776	 2347
 776	 2348
 776	 2349
 776	 2350
 776	 2351
 776	 2352
 776	 2353
 776	 2354
 776	 2355
 776	 2356
 776	 2357
 776	 2358
 776	 2359
 776	 2360
 777	 2339
 777	 2340
 777	 2341
 777	 2342
 777	 2343
 777	 2344
 777	 2345
 777	 2346
 777	 2347
 777	 2348
 777	 2349
 777	 2350
 777	 2351
 777	 2352
 777	 2353
 777	 2354
 777	 2355
 777	 2356
 777	 2357
 778	 2336
 778	 2337
 778	 2338
 778	 2339
 778	 2340
 778	 2341
 778	 2342
 778	 2343
 778	 2344
 778	 2345
 778	 2346
 778	 2347
 778	 2348
 778	 2349
 778	 2350
 778	 2351
 778	 2352
 778	 2353
 779	 2332
 779	 2333
 779	 2334
 779	 2335
 779	 2336
 779	 2337
 779	 2338
 779	 2339
 779	 2340
 779	 2341
 779	 2342
 779	 2343
 779	 2344
 779	 2345
 779	 2346
 779	 2347
 779	 2348
 779	 2349
 780	 2328
 780	 2329
 780	 2330
 780	 2331
 780	 2332
 780	 2333
 780	 2334
 780	 2335
 780	 2336
 780	 2337
 780	 2338
 780	 2339
 780	 2340
 780	 2341
 780	 2342
 780	 2343
 781	 2325
 781	 2326
 781	 2327
 781	 2328
 781	 2329
 781	 2330
 781	 2331
 781	 2332
 781	 2333
 781	 2334
 781	 2335
 781	 2336
 781	 2337
 781	 2338
 782	 2323
 782	 2324
 782	 2325
 782	 2326
 782	 2327
 782	 2328
 782	 2329
 782	 2330
 782	 2331
 782	 2332
 782	 2333
 782	 2334
 782	 2335
 783	 2320
 783	 2321
 783	 2322
 783	 2323
 783	 2324
 783	 2325
 783	 2326
 783	 2327
 783	 2328
 783	 2329
 783	 2330
 783	 2331
 784	 2317
 784	 2318
 784	 2319
 784	 2320
 784	 2321
 784	 2322
 784	 2323
 784	 2324
 784	 2325
 784	 2326
 784	 2327
 784	 2328
 785	 2314
 785	 2315
 785	 2316
 785	 2317
 785	 2318
 785	 2319
 785	 2320
 785	 2321
 785	 2322
 785	 2323
 785	 2324
 785	 2325
 786	 2308
 786	 2309
 786	 2310
 786	 2311
 786	 2312
 786	 2313
 786	 2314
 786	 2315
 786	 2316
 786	 2317
 786	 2318
 786	 2319
 786	 2320
 786	 2321
 786	 2322
 786	 2323
 787	 2304
 787	 2305
 787	 2306
 787	 2307
 787	 2308
 787	 2309
 787	 2310
 787	 2311
 787	 2312
 787	 2313
 787	 2314
 787	 2315
 787	 2316
 787	 2317
 787	 2318
 787	 2319
 788	 2300
 788	 2301
 788	 2302
 788	 2303
 788	 2304
 788	 2305
 788	 2306
 788	 2307
 788	 2308
 788	 2309
 788	 2310
 788	 2311
 788	 2312
 788	 2313
 788	 2314
 788	 2315
 788	 2316
 788	 2317
 789	 2294
 789	 2295
 789	 2296
 789	 2297
 789	 2298
 789	 2299
 789	 2300
 789	 2301
 789	 2302
 789	 2303
 789	 2304
 789	 2305
 789	 2306
 789	 2307
 789	 2308
 789	 2309
 789	 2310
 789	 2311
 789	 2312
 789	 2313
 790	 2288
 790	 2289
 790	 2290
 790	 2291
 790	 2292
 790	 2293
 790	 2294
 790	 2295
 790	 2296
 790	 2297
 790	 2298
 790	 2299
 790	 2300
 790	 2301
 790	 2302
 790	 2303
 790	 2304
 790	 2305
 790	 2306
 790	 2307
 790	 2308
 791	 2279
 791	 2280
 791	 2281
 791	 2282
 791	 2283
 791	 2284
 791	 2285
 791	 2286
 791	 2287
 791	 2288
 791	 2289
 791	 2290
 791	 2291
 791	 2292
 791	 2293
 791	 2294
 791	 2295
 791	 2296
 791	 2297
 791	 2298
 791	 2299
 791	 2300
 791	 2301
 791	 2302
 791	 2303
 791	 2304
 792	 2272
 792	 2273
 792	 2274
 792	 2275
 792	 2276
 792	 2277
 792	 2278
 792	 2279
 792	 2280
 792	 2281
 792	 2282
 792	 2283
 792	 2284
 792	 2285
 792	 2286
 792	 2287
 792	 2288
 792	 2289
 792	 2290
 792	 2291
 792	 2292
 792	 2293
 792	 2294
 792	 2295
 792	 2296
 792	 2297
 792	 2298
 792	 2299
 793	 2266
 793	 2267
 793	 2268
 793	 2269
 793	 2270
 793	 2271
 793	 2272
 793	 2273
 793	 2274
 793	 2275
 793	 2276
 793	 2277
 793	 2278
 793	 2279
 793	 2280
 793	 2281
 793	 2282
 793	 2283
 793	 2284
 793	 2285
 793	 2286
 793	 2287
 793	 2288
 793	 2289
 793	 2290
 793	 2291
 793	 2292
 793	 2293
 794	 2258
 794	 2259
 794	 2260
 794	 2261
 794	 2262
 794	 2263
 794	 2264
 794	 2265
 794	 2266
 794	 2267
 794	 2268
 794	 2269
 794	 2270
 794	 2271
 794	 2272
 794	 2273
 794	 2274
 794	 2275
 794	 2276
 794	 2277
 794	 2278
 794	 2279
 794	 2280
 794	 2281
 794	 2282
 794	 2283
 794	 2284
 794	 2285
 794	 2286
 795	 2247
 795	 2248
 795	 2249
 795	 2250
 795	 2251
 795	 2252
 795	 2253
 795	 2254
 795	 2255
 795	 2256
 795	 2257
 795	 2258
 795	 2259
 795	 2260
 795	 2261
 795	 2262
 795	 2263
 795	 2264
 795	 2265
 795	 2266
 795	 2267
 795	 2268
 795	 2269
 795	 2270
 795	 2271
 795	 2272
 795	 2273
 795	 2274
 795	 2275
 795	 2276
 795	 2277
 796	 2239
 796	 2240
 796	 2241
 796	 2242
 796	 2243
 796	 2244
 796	 2245
 796	 2246
 796	 2247
 796	 2248
 796	 2249
 796	 2250
 796	 2251
 796	 2252
 796	 2253
 796	 2254
 796	 2255
 796	 2256
 796	 2257
 796	 2258
 796	 2259
 796	 2260
 796	 2261
 796	 2262
 796	 2263
 796	 2264
 796	 2265
 796	 2266
 796	 2267
 796	 2268
 796	 2269
 796	 2270
 797	 2233
 797	 2234
 797	 2235
 797	 2236
 797	 2237
 797	 2238
 797	 2239
 797	 2240
 797	 2241
 797	 2242
 797	 2243
 797	 2244
 797	 2245
 797	 2246
 797	 2247
 797	 2248
 797	 2249
 797	 2250
 797	 2251
 797	 2252
 797	 2253
 797	 2254
 797	 2255
 797	 2256
 797	 2257
 797	 2258
 797	 2259
 797	 2260
 797	 2261
 797	 2262
 797	 2263
 797	 2264
 798	 2224
 798	 2225
 798	 2226
 798	 2227
 798	 2228
 798	 2229
 798	 2230
 798	 2231
 798	 2232
 798	 2233
 798	 2234
 798	 2235
 798	 2236
 798	 2237
 798	 2238
 798	 2239
 798	 2240
 798	 2241
 798	 2242
 798	 2243
 798	 2244
 798	 2245
 798	 2246
 798	 2247
 798	 2248
 798	 2249
 798	 2250
 798	 2251
 798	 2252
 798	 2253
 798	 2254
 798	 2255
 798	 2256
 799	 2208
 799	 2209
 799	 2210
 799	 2211
 799	 2212
 799	 2213
 799	 2214
 799	 2215
 799	 2216
 799	 2217
 799	 2218
 799	 2219
 799	 2220
 799	 2221
 799	 2222
 799	 2223
 799	 2224
 799	 2225
 799	 2226
 799	 2227
 799	 2228
 799	 2229
 799	 2230
 799	 2231
 799	 2232
 799	 2233
 799	 2234
 799	 2235
 799	 2236
 799	 2237
 799	 2238
 799	 2239
 799	 2240
 799	 2241
 799	 2242
 799	 2243
 799	 2244
 799	 2245
 800	 2197
 800	 2198
 800	 2199
 800	 2200
 800	 2201
 800	 2202
 800	 2203
 800	 2204
 800	 2205
 800	 2206
 800	 2207
 800	 2208
 800	 2209
 800	 2210
 800	 2211
 800	 2212
 800	 2213
 800	 2214
 800	 2215
 800	 2216
 800	 2217
 800	 2218
 800	 2219
 800	 2220
 800	 2221
 800	 2222
 800	 2223
 800	 2224
 800	 2225
 800	 2226
 800	 2227
 800	 2228
 800	 2229
 800	 2230
 800	 2231
 800	 2232
 800	 2233
 800	 2234
 800	 2235
 800	 2236
 800	 2237
 800	 2238
 801	 2191
 801	 2192
 801	 2193
 801	 2194
 801	 2195
 801	 2196
 801	 2197
 801	 2198
 801	 2199
 801	 2200
 801	 2201
 801	 2202
 801	 2203
 801	 2204
 801	 2205
 801	 2206
 801	 2207
 801	 2208
 801	 2209
 801	 2210
 801	 2211
 801	 2212
 801	 2213
 801	 2214
 801	 2215
 801	 2216
 801	 2217
 801	 2218
 801	 2219
 801	 2220
 801	 2221
 801	 2222
 801	 2223
 801	 2224
 801	 2225
 801	 2226
 801	 2227
 801	 2228
 801	 2229
 801	 2230
 801	 2231
 802	 2185
 802	 2186
 802	 2187
 802	 2188
 802	 2189
 802	 2190
 802	 2191
 802	 2192
 802	 2193
 802	 2194
 802	 2195
 802	 2196
 802	 2197
 802	 2198
 802	 2199
 802	 2200
 802	 2201
 802	 2202
 802	 2203
 802	 2204
 802	 2205
 802	 2206
 802	 2207
 802	 2208
 802	 2209
 802	 2210
 802	 2211
 802	 2212
 802	 2213
 802	 2214
 802	 2215
 802	 2216
 802	 2217
 802	 2218
 802	 2219
 802	 2220
 802	 2221
 803	 2184
 803	 2185
 803	 2186
 803	 2187
 803	 2188
 803	 2189
 803	 2190
 803	 2191
 803	 2192
 803	 2193
 803	 2194
 803	 2195
 803	 2196
 803	 2197
 803	 2198
 803	 2199
 803	 2200
 803	 2201
 803	 2202
 803	 2203
 803	 2204
 803	 2205
 803	 2206
 803	 2207
 803	 2208
 803	 2209
 803	 2210
 803	 2211
 803	 2212
 803	 2213
 803	 2214
 803	 2215
 803	 2216
 803	 2217
 803	 2218
 803	 2219
 803	 2220
 803	 2221
 804	 2178
 804	 2179
 804	 2180
 804	 2181
 804	 2182
 804	 2183
 804	 2184
 804	 2185
 804	 2186
 804	 2187
 804	 2188
 804	 2189
 804	 2190
 804	 2191
 804	 2192
 804	 2193
 804	 2194
 804	 2195
 804	 2196
 804	 2197
 804	 2198
 804	 2199
 804	 2200
 804	 2201
 804	 2202
 804	 2203
 804	 2204
 804	 2205
 804	 2206
 804	 2207
 804	 2208
 804	 2209
 804	 2210
 804	 2211
 804	 2212
 804	 2213
 804	 2214
 804	 2215
 805	 2180
 805	 2181
 805	 2182
 805	 2183
 805	 2184
 805	 2185
 805	 2186
 805	 2187
 805	 2188
 805	 2189
 805	 2190
 805	 2191
 805	 2192
 805	 2193
 805	 2194
 805	 2195
 805	 2196
 805	 2197
 805	 2198
 805	 2199
 805	 2200
 805	 2201
 805	 2202
 805	 2203
 805	 2204
 805	 2205
 805	 2206
 805	 2207
 806	 2184
 806	 2185
 806	 2186
 806	 2187
 806	 2188
 806	 2189
 806	 2190
 806	 2191
 806	 2192
 806	 2193
 806	 2194
 806	 2195
 806	 2196
 806	 2197
 806	 2198
 806	 2199
 806	 2200
 807	 2188
 807	 2189
 807	 2190
 807	 2191
 807	 2192
 807	 2193
 807	 2194
 807	 2195
 807	 2196
 807	 2197
 807	 2198
 807	 2199
 808	 2190
 808	 2191
 808	 2192
 808	 2193
 808	 2194
 808	 2195
 808	 2196
 808	 2197
 808	 2198
 808	 2199
 809	 2183
 809	 2184
 809	 2185
 809	 2186
 809	 2187
 809	 2188
 809	 2189
 809	 2190
 809	 2191
 809	 2192
 809	 2193
 809	 2194
 809	 2195
 809	 2196
 809	 2197
 809	 2198
 809	 2199
 810	 2175
 810	 2176
 810	 2177
 810	 2178
 810	 2179
 810	 2180
 810	 2181
 810	 2182
 810	 2183
 810	 2184
 810	 2185
 810	 2186
 810	 2187
 810	 2188
 810	 2189
 810	 2190
 810	 2191
 810	 2192
 810	 2193
 810	 2194
 810	 2195
 810	 2196
 810	 2197
 810	 2198
 810	 2199
 811	 2167
 811	 2168
 811	 2169
 811	 2170
 811	 2171
 811	 2172
 811	 2173
 811	 2174
 811	 2175
 811	 2176
 811	 2177
 811	 2178
 811	 2179
 811	 2180
 811	 2181
 811	 2182
 811	 2183
 811	 2184
 811	 2185
 811	 2186
 811	 2187
 811	 2188
 811	 2189
 811	 2190
 811	 2191
 811	 2192
 811	 2193
 811	 2194
 811	 2195
 811	 2196
 811	 2197
 811	 2198
 812	 2164
 812	 2165
 812	 2166
 812	 2167
 812	 2168
 812	 2169
 812	 2170
 812	 2171
 812	 2172
 812	 2173
 812	 2174
 812	 2175
 812	 2176
 812	 2177
 812	 2178
 812	 2179
 812	 2180
 812	 2181
 812	 2182
 812	 2183
 812	 2184
 812	 2185
 812	 2186
 812	 2187
 812	 2188
 812	 2189
 812	 2190
 812	 2191
 813	 2161
 813	 2162
 813	 2163
 813	 2164
 813	 2165
 813	 2166
 813	 2167
 813	 2168
 813	 2169
 813	 2170
 813	 2171
 813	 2172
 813	 2173
 813	 2174
 813	 2175
 813	 2176
 813	 2177
 813	 2178
 813	 2179
 813	 2180
 813	 2181
 814	 2157
 814	 2158
 814	 2159
 814	 2160
 814	 2161
 814	 2162
 814	 2163
 814	 2164
 814	 2165
 814	 2166
 814	 2167
 814	 2168
 814	 2169
 814	 2170
 814	 2171
 814	 2172
 814	 2173
 815	 2154
 815	 2155
 815	 2156
 815	 2157
 815	 2158
 815	 2159
 815	 2160
 815	 2161
 815	 2162
 815	 2163
 815	 2164
 815	 2165
 815	 2166
 815	 2167
 816	 2154
 816	 2155
 816	 2156
 816	 2157
 816	 2158
 816	 2159
 816	 2160
 816	 2161
 816	 2162
 816	 2163
 816	 2164
 817	 2154
 817	 2155
 817	 2156
 817	 2157
 817	 2158
 817	 2159
 817	 2160
 817	 2161
 818	 2154
 818	 2155
 818	 2156
 818	 2157
 818	 2158
 818	 2159
 818	 2160
 818	 2161
 818	 2162
 818	 2163
 819	 2155
 819	 2156
 819	 2157
 819	 2158
 819	 2159
 819	 2160
 819	 2161
 819	 2162
 819	 2163
 819	 2164
 819	 2165
 819	 2166
 819	 2167
 819	 2168
 819	 2169
 819	 2170
 820	 2157
 820	 2158
 820	 2159
 820	 2160
 820	 2161
 820	 2162
 820	 2163
 820	 2164
 820	 2165
 820	 2166
 820	 2167
 820	 2168
 820	 2169
 820	 2170
 820	 2171
 820	 2172
 820	 2173
 820	 2174
 820	 2175
 820	 2176
 820	 2177
 821	 2159
 821	 2160
 821	 2161
 821	 2162
 821	 2163
 821	 2164
 821	 2165
 821	 2166
 821	 2167
 821	 2168
 821	 2169
 821	 2170
 821	 2171
 821	 2172
 821	 2173
 821	 2174
 821	 2175
 821	 2176
 821	 2177
 821	 2178
 821	 2179
 822	 2164
 822	 2165
 822	 2166
 822	 2167
 822	 2168
 822	 2169
 822	 2170
 822	 2171
 822	 2172
 822	 2173
 822	 2174
 822	 2175
 822	 2176
 822	 2177
 822	 2178
 822	 2179
 822	 2180
 823	 2172
 823	 2173
 823	 2174
 823	 2175
 823	 2176
 823	 2177
 823	 2178
 823	 2179
 823	 2180
 823	 2181
 823	 2182
 823	 2183
 823	 2184
 823	 2185
 824	 2177
 824	 2178
 824	 2179
 824	 2180
 824	 2181
 824	 2182
 824	 2183
 824	 2184
 824	 2185
 824	 2186
 824	 2187
 824	 2188
 824	 2189
 824	 2190
 824	 2191
 825	 2177
 825	 2178
 825	 2179
 825	 2180
 825	 2181
 825	 2182
 825	 2183
 825	 2184
 825	 2185
 825	 2186
 825	 2187
 825	 2188
 825	 2189
 825	 2190
 825	 2191
 825	 2192
 825	 2193
 825	 2194
 825	 2195
 825	 2196
 825	 2197
 826	 2181
 826	 2182
 826	 2183
 826	 2184
 826	 2185
 826	 2186
 826	 2187
 826	 2188
 826	 2189
 826	 2190
 826	 2191
 826	 2192
 826	 2193
 826	 2194
 826	 2195
 826	 2196
 826	 2197
 826	 2198
 826	 2199
 826	 2200
 826	 2201
 826	 2202
 826	 2203
 826	 2204
 826	 2205
 826	 2206
 827	 2186
 827	 2187
 827	 2188
 827	 2189
 827	 2190
 827	 2191
 827	 2192
 827	 2193
 827	 2194
 827	 2195
 827	 2196
 827	 2197
 827	 2198
 827	 2199
 827	 2200
 827	 2201
 827	 2202
 827	 2203
 827	 2204
 827	 2205
 827	 2206
 827	 2207
 827	 2208
 827	 2209
 827	 2210
 827	 2211
 827	 2212
 827	 2213
 828	 2192
 828	 2193
 828	 2194
 828	 2195
 828	 2196
 828	 2197
 828	 2198
 828	 2199
 828	 2200
 828	 2201
 828	 2202
 828	 2203
 828	 2204
 828	 2205
 828	 2206
 828	 2207
 828	 2208
 828	 2209
 828	 2210
 828	 2211
 828	 2212
 828	 2213
 828	 2214
 828	 2215
 828	 2216
 828	 2217
 829	 2198
 829	 2199
 829	 2200
 829	 2201
 829	 2202
 829	 2203
 829	 2204
 829	 2205
 829	 2206
 829	 2207
 829	 2208
 829	 2209
 829	 2210
 829	 2211
 829	 2212
 829	 2213
 829	 2214
 829	 2215
 829	 2216
 829	 2217
 829	 2218
 829	 2219
 830	 2208
 830	 2209
 830	 2210
 830	 2211
 830	 2212
 830	 2213
 830	 2214
 830	 2215
 830	 2216
 830	 2217
 830	 2218
 830	 2219
 830	 2220
 830	 2221
 831	 2214
 831	 2215
 831	 2216
 831	 2217
 831	 2218
 831	 2219
 831	 2220
 831	 2221
 831	 2222
 831	 2223
 831	 2224
 832	 2217
 832	 2218
 832	 2219
 832	 2220
 832	 2221
 832	 2222
 832	 2223
 832	 2224
 832	 2225
 832	 2226
 832	 2227
 833	 2219
 833	 2220
 833	 2221
 833	 2222
 833	 2223
 833	 2224
 833	 2225
 833	 2226
 833	 2227
 833	 2228
 834	 2221
 834	 2222
 834	 2223
 834	 2224
 834	 2225
 834	 2226
 834	 2227
 834	 2228
 834	 2229
 834	 2230
 835	 2224
 835	 2225
 835	 2226
 835	 2227
 835	 2228
 835	 2229
 835	 2230
 835	 2231
 835	 2232
 835	 2233
 835	 2234
 836	 2226
 836	 2227
 836	 2228
 836	 2229
 836	 2230
 836	 2231
 836	 2232
 836	 2233
 836	 2234
 836	 2235
 836	 2236
 837	 2228
 837	 2229
 837	 2230
 837	 2231
 837	 2232
 837	 2233
 837	 2234
 837	 2235
 837	 2236
 837	 2237
 837	 2238
 838	 2231
 838	 2232
 838	 2233
 838	 2234
 838	 2235
 838	 2236
 838	 2237
 838	 2238
 838	 2239
 838	 2240
 839	 2234
 839	 2235
 839	 2236
 839	 2237
 839	 2238
 839	 2239
 839	 2240
 839	 2241
 839	 2242
 840	 2236
 840	 2237
 840	 2238
 840	 2239
 840	 2240
 840	 2241
 840	 2242
 840	 2243
 840	 2244
 841	 2238
 841	 2239
 841	 2240
 841	 2241
 841	 2242
 841	 2243
 841	 2244
 841	 2245
 841	 2246
 842	 2240
 842	 2241
 842	 2242
 842	 2243
 842	 2244
 842	 2245
 842	 2246
 842	 2247
 842	 2248
 842	 2249
 842	 2250
 843	 2242
 843	 2243
 843	 2244
 843	 2245
 843	 2246
 843	 2247
 843	 2248
 843	 2249
 843	 2250
 843	 2251
 843	 2252
 843	 2253
 844	 2244
 844	 2245
 844	 2246
 844	 2247
 844	 2248
 844	 2249
 844	 2250
 844	 2251
 844	 2252
 844	 2253
 844	 2254
 844	 2255
 844	 2256
 845	 2246
 845	 2247
 845	 2248
 845	 2249
 845	 2250
 845	 2251
 845	 2252
 845	 2253
 845	 2254
 845	 2255
 845	 2256
 845	 2257
 845	 2258
 845	 2259
 845	 2260
 845	 2261
 845	 2262
 846	 2250
 846	 2251
 846	 2252
 846	 2253
 846	 2254
 846	 2255
 846	 2256
 846	 2257
 846	 2258
 846	 2259
 846	 2260
 846	 2261
 846	 2262
 846	 2263
 846	 2264
 846	 2265
 846	 2266
 846	 2267
 846	 2268
 846	 2269
 846	 2270
 846	 2271
 847	 2253
 847	 2254
 847	 2255
 847	 2256
 847	 2257
 847	 2258
 847	 2259
 847	 2260
 847	 2261
 847	 2262
 847	 2263
 847	 2264
 847	 2265
 847	 2266
 847	 2267
 847	 2268
 847	 2269
 847	 2270
 847	 2271
 847	 2272
 847	 2273
 847	 2274
 847	 2275
 847	 2276
 847	 2277
 847	 2278
 847	 2279
 847	 2280
 848	 2256
 848	 2257
 848	 2258
 848	 2259
 848	 2260
 848	 2261
 848	 2262
 848	 2263
 848	 2264
 848	 2265
 848	 2266
 848	 2267
 848	 2268
 848	 2269
 848	 2270
 848	 2271
 848	 2272
 848	 2273
 848	 2274
 848	 2275
 848	 2276
 848	 2277
 848	 2278
 848	 2279
 848	 2280
 848	 2281
 848	 2282
 848	 2283
 848	 2284
 848	 2285
 848	 2286
 848	 2287
 848	 2288
 848	 2289
 849	 2264
 849	 2265
 849	 2266
 849	 2267
 849	 2268
 849	 2269
 849	 2270
 849	 2271
 849	 2272
 849	 2273
 849	 2274
 849	 2275
 849	 2276
 849	 2277
 849	 2278
 849	 2279
 849	 2280
 849	 2281
 849	 2282
 849	 2283
 849	 2284
 849	 2285
 849	 2286
 849	 2287
 849	 2288
 849	 2289
 849	 2290
 849	 2291
 849	 2292
 849	 2293
 849	 2294
 849	 2295
 849	 2296
 849	 2297
 849	 2298
 849	 2299
 850	 2273
 850	 2274
 850	 2275
 850	 2276
 850	 2277
 850	 2278
 850	 2279
 850	 2280
 850	 2281
 850	 2282
 850	 2283
 850	 2284
 850	 2285
 850	 2286
 850	 2287
 850	 2288
 850	 2289
 850	 2290
 850	 2291
 850	 2292
 850	 2293
 850	 2294
 850	 2295
 850	 2296
 850	 2297
 850	 2298
 850	 2299
 850	 2300
 850	 2301
 850	 2302
 850	 2303
 850	 2304
 850	 2305
 850	 2306
 850	 2307
 850	 2308
 850	 2309
 850	 2310
 851	 2282
 851	 2283
 851	 2284
 851	 2285
 851	 2286
 851	 2287
 851	 2288
 851	 2289
 851	 2290
 851	 2291
 851	 2292
 851	 2293
 851	 2294
 851	 2295
 851	 2296
 851	 2297
 851	 2298
 851	 2299
 851	 2300
 851	 2301
 851	 2302
 851	 2303
 851	 2304
 851	 2305
 851	 2306
 851	 2307
 851	 2308
 851	 2309
 851	 2310
 851	 2311
 851	 2312
 851	 2313
 851	 2314
 851	 2315
 851	 2316
 851	 2317
 851	 2318
 851	 2319
 851	 2320
 851	 2321
 852	 2291
 852	 2292
 852	 2293
 852	 2294
 852	 2295
 852	 2296
 852	 2297
 852	 2298
 852	 2299
 852	 2300
 852	 2301
 852	 2302
 852	 2303
 852	 2304
 852	 2305
 852	 2306
 852	 2307
 852	 2308
 852	 2309
 852	 2310
 852	 2311
 852	 2312
 852	 2313
 852	 2314
 852	 2315
 852	 2316
 852	 2317
 852	 2318
 852	 2319
 852	 2320
 852	 2321
 852	 2322
 852	 2323
 852	 2324
 852	 2325
 852	 2326
 852	 2327
 852	 2328
 852	 2329
 852	 2330
 852	 2331
 853	 2302
 853	 2303
 853	 2304
 853	 2305
 853	 2306
 853	 2307
 853	 2308
 853	 2309
 853	 2310
 853	 2311
 853	 2312
 853	 2313
 853	 2314
 853	 2315
 853	 2316
 853	 2317
 853	 2318
 853	 2319
 853	 2320
 853	 2321
 853	 2322
 853	 2323
 853	 2324
 853	 2325
 853	 2326
 853	 2327
 853	 2328
 853	 2329
 853	 2330
 853	 2331
 853	 2332
 853	 2333
 853	 2334
 853	 2335
 853	 2336
 853	 2337
 853	 2338
 853	 2339
 853	 2340
 853	 2341
 854	 2313
 854	 2314
 854	 2315
 854	 2316
 854	 2317
 854	 2318
 854	 2319
 854	 2320
 854	 2321
 854	 2322
 854	 2323
 854	 2324
 854	 2325
 854	 2326
 854	 2327
 854	 2328
 854	 2329
 854	 2330
 854	 2331
 854	 2332
 854	 2333
 854	 2334
 854	 2335
 854	 2336
 854	 2337
 854	 2338
 854	 2339
 854	 2340
 854	 2341
 854	 2342
 854	 2343
 854	 2344
 854	 2345
 854	 2346
 854	 2347
 854	 2348
 854	 2349
 854	 2350
 854	 2351
 855	 2323
 855	 2324
 855	 2325
 855	 2326
 855	 2327
 855	 2328
 855	 2329
 855	 2330
 855	 2331
 855	 2332
 855	 2333
 855	 2334
 855	 2335
 855	 2336
 855	 2337
 855	 2338
 855	 2339
 855	 2340
 855	 2341
 855	 2342
 855	 2343
 855	 2344
 855	 2345
 855	 2346
 855	 2347
 855	 2348
 855	 2349
 855	 2350
 855	 2351
 855	 2352
 855	 2353
 855	 2354
 855	 2355
 855	 2356
 855	 2357
 855	 2358
 855	 2359
 855	 2360
 855	 2361
 856	 2334
 856	 2335
 856	 2336
 856	 2337
 856	 2338
 856	 2339
 856	 2340
 856	 2341
 856	 2342
 856	 2343
 856	 2344
 856	 2345
 856	 2346
 856	 2347
 856	 2348
 856	 2349
 856	 2350
 856	 2351
 856	 2352
 856	 2353
 856	 2354
 856	 2355
 856	 2356
 856	 2357
 856	 2358
 856	 2359
 856	 2360
 856	 2361
 856	 2362
 856	 2363
 856	 2364
 856	 2365
 856	 2366
 856	 2367
 856	 2368
 856	 2369
 856	 2370
 856	 2371
 856	 2372
 857	 2343
 857	 2344
 857	 2345
 857	 2346
 857	 2347
 857	 2348
 857	 2349
 857	 2350
 857	 2351
 857	 2352
 857	 2353
 857	 2354
 857	 2355
 857	 2356
 857	 2357
 857	 2358
 857	 2359
 857	 2360
 857	 2361
 857	 2362
 857	 2363
 857	 2364
 857	 2365
 857	 2366
 857	 2367
 857	 2368
 857	 2369
 857	 2370
 857	 2371
 857	 2372
 857	 2373
 857	 2374
 857	 2375
 857	 2376
 857	 2377
 857	 2378
 857	 2379
 857	 2380
 857	 2381
 857	 2382
 858	 2353
 858	 2354
 858	 2355
 858	 2356
 858	 2357
 858	 2358
 858	 2359
 858	 2360
 858	 2361
 858	 2362
 858	 2363
 858	 2364
 858	 2365
 858	 2366
 858	 2367
 858	 2368
 858	 2369
 858	 2370
 858	 2371
 858	 2372
 858	 2373
 858	 2374
 858	 2375
 858	 2376
 858	 2377
 858	 2378
 858	 2379
 858	 2380
 858	 2381
 858	 2382
 858	 2383
 858	 2384
 858	 2385
 858	 2386
 858	 2387
 858	 2388
 858	 2389
 858	 2390
 858	 2391
 858	 2392
 859	 2363
 859	 2364
 859	 2365
 859	 2366
 859	 2367
 859	 2368
 859	 2369
 859	 2370
 859	 2371
 859	 2372
 859	 2373
 859	 2374
 859	 2375
 859	 2376
 859	 2377
 859	 2378
 859	 2379
 859	 2380
 859	 2381
 859	 2382
 859	 2383
 859	 2384
 859	 2385
 859	 2386
 859	 2387
 859	 2388
 859	 2389
 859	 2390
 859	 2391
 859	 2392
 859	 2393
 859	 2394
 859	 2395
 859	 2396
 859	 2397
 859	 2398
 859	 2399
 859	 2400
 859	 2401
 860	 2374
 860	 2375
 860	 2376
 860	 2377
 860	 2378
 860	 2379
 860	 2380
 860	 2381
 860	 2382
 860	 2383
 860	 2384
 860	 2385
 860	 2386
 860	 2387
 860	 2388
 860	 2389
 860	 2390
 860	 2391
 860	 2392
 860	 2393
 860	 2394
 860	 2395
 860	 2396
 860	 2397
 860	 2398
 860	 2399
 860	 2400
 860	 2401
 860	 2402
 860	 2403
 860	 2404
 860	 2405
 860	 2406
 861	 2384
 861	 2385
 861	 2386
 861	 2387
 861	 2388
 861	 2389
 861	 2390
 861	 2391
 861	 2392
 861	 2393
 861	 2394
 861	 2395
 861	 2396
 861	 2397
 861	 2398
 861	 2399
 861	 2400
 861	 2401
 861	 2402
 861	 2403
 861	 2404
 861	 2405
 861	 2406
 861	 2407
 861	 2408
 861	 2409
 861	 2410
 862	 2394
 862	 2395
 862	 2396
 862	 2397
 862	 2398
 862	 2399
 862	 2400
 862	 2401
 862	 2402
 862	 2403
 862	 2404
 862	 2405
 862	 2406
 862	 2407
 862	 2408
 862	 2409
 862	 2410
 862	 2411
 862	 2412
 862	 2413
 862	 2414
 863	 2402
 863	 2403
 863	 2404
 863	 2405
 863	 2406
 863	 2407
 863	 2408
 863	 2409
 863	 2410
 863	 2411
 863	 2412
 863	 2413
 863	 2414
 863	 2415
 863	 2416
 863	 2417
 863	 2418
 863	 2419
 864	 2407
 864	 2408
 864	 2409
 864	 2410
 864	 2411
 864	 2412
 864	 2413
 864	 2414
 864	 2415
 864	 2416
 864	 2417
 864	 2418
 864	 2419
 864	 2420
 864	 2421
 864	 2422
 865	 2411
 865	 2412
 865	 2413
 865	 2414
 865	 2415
 865	 2416
 865	 2417
 865	 2418
 865	 2419
 865	 2420
 865	 2421
 865	 2422
 865	 2423
 865	 2424
 865	 2425
 866	 2415
 866	 2416
 866	 2417
 866	 2418
 866	 2419
 866	 2420
 866	 2421
 866	 2422
 866	 2423
 866	 2424
 866	 2425
 866	 2426
 866	 2427
 866	 2428
 867	 2419
 867	 2420
 867	 2421
 867	 2422
 867	 2423
 867	 2424
 867	 2425
 867	 2426
 867	 2427
 867	 2428
 867	 2429
 867	 2430
 868	 2422
 868	 2423
 868	 2424
 868	 2425
 868	 2426
 868	 2427
 868	 2428
 868	 2429
 868	 2430
 868	 2431
 868	 2432
 869	 2425
 869	 2426
 869	 2427
 869	 2428
 869	 2429
 869	 2430
 869	 2431
 869	 2432
 869	 2433
 869	 2434
 870	 2428
 870	 2429
 870	 2430
 870	 2431
 870	 2432
 870	 2433
 870	 2434
 870	 2435
 870	 2436
 871	 2430
 871	 2431
 871	 2432
 871	 2433
 871	 2434
 871	 2435
 871	 2436
 871	 2437
 872	 2432
 872	 2433
 872	 2434
 872	 2435
 872	 2436
 872	 2437
 872	 2438
 873	 2434
 873	 2435
 873	 2436
 873	 2437
 873	 2438
 873	 2439
 874	 2435
 874	 2436
 874	 2437
 874	 2438
 874	 2439
 874	 2440
 874	 2441
 874	 2442
 875	 2436
 875	 2437
 875	 2438
 875	 2439
 875	 2440
 875	 2441
 875	 2442
 875	 2443
 875	 2444
 876	 2437
 876	 2438
 876	 2439
 876	 2440
 876	 2441
 876	 2442
 876	 2443
 876	 2444
 876	 2445
 876	 2446
 877	 2439
 877	 2440
 877	 2441
 877	 2442
 877	 2443
 877	 2444
 877	 2445
 877	 2446
 877	 2447
 877	 2448
 878	 2442
 878	 2443
 878	 2444
 878	 2445
 878	 2446
 878	 2447
 878	 2448
 878	 2449
 879	 2444
 879	 2445
 879	 2446
 879	 2447
 879	 2448
 879	 2449
 879	 2450
 880	 2446
 880	 2447
 880	 2448
 880	 2449
 880	 2450
 880	 2451
 881	 2447
 881	 2448
 881	 2449
 881	 2450
 881	 2451
 881	 2452
 881	 2453
 881	 2454
 882	 2448
 882	 2449
 882	 2450
 882	 2451
 882	 2452
 882	 2453
 882	 2454
 882	 2455
 882	 2456
 883	 2449
 883	 2450
 883	 2451
 883	 2452
 883	 2453
 883	 2454
 883	 2455
 883	 2456
 883	 2457
 883	 2458
 884	 2450
 884	 2451
 884	 2452
 884	 2453
 884	 2454
 884	 2455
 884	 2456
 884	 2457
 884	 2458
 884	 2459
 884	 2460
 885	 2454
 885	 2455
 885	 2456
 885	 2457
 885	 2458
 885	 2459
 885	 2460
 885	 2461
 886	 2456
 886	 2457
 886	 2458
 886	 2459
 886	 2460
 886	 2461
 886	 2462
 887	 2458
 887	 2459
 887	 2460
 887	 2461
 887	 2462
 887	 2463
 888	 2459
 888	 2460
 888	 2461
 888	 2462
 888	 2463
 888	 2464
 888	 2465
 889	 2460
 889	 2461
 889	 2462
 889	 2463
 889	 2464
 889	 2465
 889	 2466
 889	 2467
 889	 2468
 890	 2461
 890	 2462
 890	 2463
 890	 2464
 890	 2465
 890	 2466
 890	 2467
 890	 2468
 890	 2469
 890	 2470
 891	 2462
 891	 2463
 891	 2464
 891	 2465
 891	 2466
 891	 2467
 891	 2468
 891	 2469
 891	 2470
 891	 2471
 891	 2472
 892	 2466
 892	 2467
 892	 2468
 892	 2469
 892	 2470
 892	 2471
 892	 2472
 892	 2473
 892	 2474
 893	 2467
 893	 2468
 893	 2469
 893	 2470
 893	 2471
 893	 2472
 893	 2473
 893	 2474
 893	 2475
 894	 2469
 894	 2470
 894	 2471
 894	 2472
 894	 2473
 894	 2474
 894	 2475
 894	 2476
 895	 2472
 895	 2473
 895	 2474
 895	 2475
 895	 2476
 895	 2477
 895	 2478
 896	 2473
 896	 2474
 896	 2475
 896	 2476
 896	 2477
 896	 2478
 896	 2479
 896	 2480
 897	 2474
 897	 2475
 897	 2476
 897	 2477
 897	 2478
 897	 2479
 897	 2480
 897	 2481
 898	 2476
 898	 2477
 898	 2478
 898	 2479
 898	 2480
 898	 2481
 898	 2482
 899	 2478
 899	 2479
 899	 2480
 899	 2481
 899	 2482
 899	 2483
 900	 2479
 900	 2480
 900	 2481
 900	 2482
 900	 2483
 900	 2484
 901	 2480
 901	 2481
 901	 2482
 901	 2483
 901	 2484
 901	 2485
 902	 2481
 902	 2482
 902	 2483
 902	 2484
 902	 2485
 902	 2486
 903	 2482
 903	 2483
 903	 2484
 903	 2485
 903	 2486
 903	 2487
 903	 2488
 904	 2483
 904	 2484
 904	 2485
 904	 2486
 904	 2487
 904	 2488
 904	 2489
 904	 2490
 905	 2484
 905	 2485
 905	 2486
 905	 2487
 905	 2488
 905	 2489
 905	 2490
 905	 2491
 905	 2492
 906	 2486
 906	 2487
 906	 2488
 906	 2489
 906	 2490
 906	 2491
 906	 2492
 906	 2493
 906	 2494
 907	 2488
 907	 2489
 907	 2490
 907	 2491
 907	 2492
 907	 2493
 907	 2494
 907	 2495
 908	 2490
 908	 2491
 908	 2492
 908	 2493
 908	 2494
 908	 2495
 909	 2492
 909	 2493
 909	 2494
 909	 2495
 910	 2492
 910	 2493
 910	 2494
 910	 2495
 911	 2492
 911	 2493
 911	 2494
 911	 2495
 911	 2496
 912	 2493
 912	 2494
 912	 2495
 912	 2496
 912	 2497
 913	 2494
 913	 2495
 913	 2496
 913	 2497
 913	 2498
 913	 2499
 914	 2494
 914	 2495
 914	 2496
 914	 2497
 914	 2498
 914	 2499
 914	 2500
 915	 2495
 915	 2496
 915	 2497
 915	 2498
 915	 2499
 915	 2500
 916	 2497
 916	 2498
 916	 2499
 916	 2500
 917	 2496
 917	 2497
 917	 2498
 917	 2499
 917	 2500
 918	 2495
 918	 2496
 918	 2497
 918	 2498
 918	 2499
 918	 2500
 919	 2495
 919	 2496
 919	 2497
 919	 2498
 919	 2499
 919	 2500
 920	 2495
 920	 2496
 920	 2497
 920	 2498
 921	 2494
 921	 2495
 921	 2496
 921	 2497
 921	 2498
 922	 2494
 922	 2495
 922	 2496
 922	 2497
 922	 2498
 923	 2494
 923	 2495
 923	 2496
 923	 2497
 924	 2493
 924	 2494
 924	 2495
 924	 2496
 925	 2492
 925	 2493
 925	 2494
 925	 2495
 925	 2496
 926	 2491
 926	 2492
 926	 2493
 926	 2494
 926	 2495
 926	 2496
 927	 2489
 927	 2490
 927	 2491
 927	 2492
 927	 2493
 927	 2494
 927	 2495
 928	 2488
 928	 2489
 928	 2490
 928	 2491
 928	 2492
 928	 2493
 928	 2494
 929	 2487
 929	 2488
 929	 2489
 929	 2490
 929	 2491
 929	 2492
 929	 2493
 930	 2486
 930	 2487
 930	 2488
 930	 2489
 930	 2490
 930	 2491
 930	 2492
 931	 2483
 931	 2484
 931	 2485
 931	 2486
 931	 2487
 931	 2488
 931	 2489
 931	 2490
 932	 2480
 932	 2481
 932	 2482
 932	 2483
 932	 2484
 932	 2485
 932	 2486
 932	 2487
 932	 2488
 932	 2489
 933	 2477
 933	 2478
 933	 2479
 933	 2480
 933	 2481
 933	 2482
 933	 2483
 933	 2484
 933	 2485
 933	 2486
 933	 2487
 933	 2488
 934	 2474
 934	 2475
 934	 2476
 934	 2477
 934	 2478
 934	 2479
 934	 2480
 934	 2481
 934	 2482
 934	 2483
 934	 2484
 934	 2485
 934	 2486
 935	 2471
 935	 2472
 935	 2473
 935	 2474
 935	 2475
 935	 2476
 935	 2477
 935	 2478
 935	 2479
 935	 2480
 935	 2481
 935	 2482
 935	 2483
 936	 2469
 936	 2470
 936	 2471
 936	 2472
 936	 2473
 936	 2474
 936	 2475
 936	 2476
 936	 2477
 936	 2478
 936	 2479
 936	 2480
 937	 2467
 937	 2468
 937	 2469
 937	 2470
 937	 2471
 937	 2472
 937	 2473
 937	 2474
 937	 2475
 937	 2476
 937	 2477
 938	 2462
 938	 2463
 938	 2464
 938	 2465
 938	 2466
 938	 2467
 938	 2468
 938	 2469
 938	 2470
 938	 2471
 938	 2472
 938	 2473
 939	 2459
 939	 2460
 939	 2461
 939	 2462
 939	 2463
 939	 2464
 939	 2465
 939	 2466
 939	 2467
 939	 2468
 939	 2469
 939	 2470
 939	 2471
 940	 2457
 940	 2458
 940	 2459
 940	 2460
 940	 2461
 940	 2462
 940	 2463
 940	 2464
 940	 2465
 940	 2466
 940	 2467
 940	 2468
 940	 2469
 941	 2453
 941	 2454
 941	 2455
 941	 2456
 941	 2457
 941	 2458
 941	 2459
 941	 2460
 941	 2461
 941	 2462
 941	 2463
 941	 2464
 941	 2465
 941	 2466
 942	 2449
 942	 2450
 942	 2451
 942	 2452
 942	 2453
 942	 2454
 942	 2455
 942	 2456
 942	 2457
 942	 2458
 942	 2459
 942	 2460
 942	 2461
 942	 2462
 943	 2446
 943	 2447
 943	 2448
 943	 2449
 943	 2450
 943	 2451
 943	 2452
 943	 2453
 943	 2454
 943	 2455
 943	 2456
 943	 2457
 943	 2458
 943	 2459
 944	 2443
 944	 2444
 944	 2445
 944	 2446
 944	 2447
 944	 2448
 944	 2449
 944	 2450
 944	 2451
 944	 2452
 944	 2453
 944	 2454
 944	 2455
 944	 2456
 945	 2439
 945	 2440
 945	 2441
 945	 2442
 945	 2443
 945	 2444
 945	 2445
 945	 2446
 945	 2447
 945	 2448
 945	 2449
 945	 2450
 945	 2451
 945	 2452
 946	 2436
 946	 2437
 946	 2438
 946	 2439
 946	 2440
 946	 2441
 946	 2442
 946	 2443
 946	 2444
 946	 2445
 946	 2446
 946	 2447
 946	 2448
 946	 2449
 947	 2432
 947	 2433
 947	 2434
 947	 2435
 947	 2436
 947	 2437
 947	 2438
 947	 2439
 947	 2440
 947	 2441
 947	 2442
 947	 2443
 947	 2444
 947	 2445
 947	 2446
 948	 2427
 948	 2428
 948	 2429
 948	 2430
 948	 2431
 948	 2432
 948	 2433
 948	 2434
 948	 2435
 948	 2436
 948	 2437
 948	 2438
 948	 2439
 948	 2440
 948	 2441
 948	 2442
 948	 2443
 949	 2422
 949	 2423
 949	 2424
 949	 2425
 949	 2426
 949	 2427
 949	 2428
 949	 2429
 949	 2430
 949	 2431
 949	 2432
 949	 2433
 949	 2434
 949	 2435
 949	 2436
 949	 2437
 949	 2438
 949	 2439
 950	 2418
 950	 2419
 950	 2420
 950	 2421
 950	 2422
 950	 2423
 950	 2424
 950	 2425
 950	 2426
 950	 2427
 950	 2428
 950	 2429
 950	 2430
 950	 2431
 950	 2432
 950	 2433
 950	 2434
 950	 2435
 951	 2414
 951	 2415
 951	 2416
 951	 2417
 951	 2418
 951	 2419
 951	 2420
 951	 2421
 951	 2422
 951	 2423
 951	 2424
 951	 2425
 951	 2426
 951	 2427
 951	 2428
 951	 2429
 951	 2430
 951	 2431
 952	 2410
 952	 2411
 952	 2412
 952	 2413
 952	 2414
 952	 2415
 952	 2416
 952	 2417
 952	 2418
 952	 2419
 952	 2420
 952	 2421
 952	 2422
 952	 2423
 952	 2424
 952	 2425
 952	 2426
 953	 2406
 953	 2407
 953	 2408
 953	 2409
 953	 2410
 953	 2411
 953	 2412
 953	 2413
 953	 2414
 953	 2415
 953	 2416
 953	 2417
 953	 2418
 953	 2419
 953	 2420
 953	 2421
 954	 2402
 954	 2403
 954	 2404
 954	 2405
 954	 2406
 954	 2407
 954	 2408
 954	 2409
 954	 2410
