 20	 1055
 20	 1056
 20	 1057
 21	 1055
 21	 1056
 21	 1057
 22	 1055
 22	 1056
 22	 1057
 23	 1055
 23	 1056
 23	 1057
 24	 1055
 24	 1056
 24	 1057
 25	 1055
 25	 1056
 25	 1057
 26	 1001
 26	 1002
 26	 1003
 26	 1004
 26	 1005
 26	 1006
 26	 1007
 26	 1008
 26	 1009
 26	 1010
 26	 1011
 26	 1012
 26	 1013
 26	 1014
 26	 1015
 26	 1016
 26	 1017
 26	 1018
 26	 1019
 26	 1020
 26	 1021
 26	 1022
 26	 1023
 26	 1024
 26	 1025
 26	 1026
 26	 1027
 26	 1028
 26	 1029
 26	 1030
 26	 1031
 26	 1032
 26	 1033
 26	 1034
 26	 1035
 26	 1036
 26	 1037
 26	 1038
 26	 1039
 26	 1040
 26	 1041
 26	 1042
 26	 1043
 26	 1044
 26	 1045
 26	 1046
 26	 1047
 26	 1048
 26	 1049
 26	 1050
 26	 1051
 26	 1052
 26	 1053
 26	 1054
 26	 1055
 26	 1056
 26	 1057
 27	 901
 27	 902
 27	 903
 27	 904
 27	 905
 27	 906
 27	 907
 27	 908
 27	 909
 27	 910
 27	 911
 27	 912
 27	 913
 27	 914
 27	 915
 27	 916
 27	 917
 27	 918
 27	 919
 27	 920
 27	 921
 27	 922
 27	 923
 27	 924
 27	 925
 27	 926
 27	 927
 27	 928
 27	 929
 27	 930
 27	 931
 27	 932
 27	 933
 27	 934
 27	 935
 27	 936
 27	 937
 27	 938
 27	 939
 27	 940
 27	 941
 27	 942
 27	 943
 27	 944
 27	 945
 27	 946
 27	 947
 27	 948
 27	 949
 27	 950
 27	 951
 27	 952
 27	 953
 27	 954
 27	 955
 27	 956
 27	 957
 27	 958
 27	 959
 27	 960
 27	 961
 27	 962
 27	 963
 27	 964
 27	 965
 27	 966
 27	 967
 27	 968
 27	 969
 27	 970
 27	 971
 27	 972
 27	 973
 27	 974
 27	 975
 27	 976
 27	 977
 27	 978
 27	 979
 27	 980
 27	 981
 27	 982
 27	 983
 27	 984
 27	 985
 27	 986
 27	 987
 27	 988
 27	 989
 27	 990
 27	 991
 27	 992
 27	 993
 27	 994
 27	 995
 27	 996
 27	 997
 27	 998
 27	 999
 27	 1000
 27	 1001
 27	 1002
 27	 1003
 27	 1004
 27	 1005
 27	 1006
 27	 1007
 27	 1008
 27	 1009
 27	 1010
 27	 1011
 27	 1012
 27	 1013
 27	 1014
 27	 1015
 27	 1016
 27	 1017
 27	 1018
 27	 1019
 27	 1020
 27	 1021
 27	 1022
 27	 1023
 27	 1024
 27	 1025
 27	 1026
 27	 1027
 27	 1028
 27	 1029
 27	 1030
 27	 1031
 27	 1032
 27	 1033
 27	 1034
 27	 1035
 27	 1036
 27	 1037
 27	 1038
 27	 1039
 27	 1040
 27	 1041
 27	 1042
 27	 1043
 27	 1044
 27	 1045
 27	 1046
 27	 1047
 27	 1048
 27	 1049
 27	 1050
 27	 1051
 27	 1052
 27	 1053
 27	 1054
 27	 1055
 27	 1056
 27	 1057
 28	 877
 28	 878
 28	 879
 28	 880
 28	 881
 28	 882
 28	 883
 28	 884
 28	 885
 28	 886
 28	 887
 28	 888
 28	 889
 28	 890
 28	 891
 28	 892
 28	 893
 28	 894
 28	 895
 28	 896
 28	 897
 28	 898
 28	 899
 28	 900
 28	 901
 28	 902
 28	 903
 28	 904
 28	 905
 28	 906
 28	 907
 28	 908
 28	 909
 28	 910
 28	 911
 28	 912
 28	 913
 28	 914
 28	 915
 28	 916
 28	 917
 28	 918
 28	 919
 28	 920
 28	 921
 28	 922
 28	 923
 28	 924
 28	 925
 28	 926
 28	 927
 28	 928
 28	 929
 28	 930
 28	 931
 28	 932
 28	 933
 28	 934
 28	 935
 28	 936
 28	 937
 28	 938
 28	 939
 28	 940
 28	 941
 28	 942
 28	 943
 28	 944
 28	 945
 28	 946
 28	 947
 28	 948
 28	 949
 28	 950
 28	 951
 28	 952
 28	 953
 28	 954
 28	 955
 28	 956
 28	 957
 28	 958
 28	 959
 28	 960
 28	 961
 28	 962
 28	 963
 28	 964
 28	 965
 28	 966
 28	 967
 28	 968
 28	 969
 28	 970
 28	 971
 28	 972
 28	 973
 28	 974
 28	 975
 28	 976
 28	 977
 28	 978
 28	 979
 28	 980
 28	 981
 28	 982
 28	 983
 28	 984
 28	 985
 28	 986
 28	 987
 28	 988
 28	 989
 28	 990
 28	 991
 28	 992
 28	 993
 28	 994
 28	 995
 28	 996
 28	 997
 28	 998
 28	 999
 28	 1000
 28	 1001
 28	 1002
 28	 1003
 28	 1004
 28	 1005
 28	 1006
 28	 1007
 28	 1008
 28	 1009
 28	 1010
 28	 1011
 28	 1012
 28	 1013
 28	 1014
 28	 1015
 28	 1016
 28	 1017
 28	 1018
 28	 1019
 28	 1020
 28	 1021
 28	 1022
 28	 1023
 28	 1024
 28	 1025
 28	 1026
 28	 1027
 28	 1028
 28	 1029
 28	 1030
 28	 1031
 28	 1032
 28	 1033
 28	 1034
 28	 1035
 28	 1036
 28	 1037
 28	 1038
 28	 1039
 28	 1040
 28	 1041
 28	 1042
 28	 1043
 28	 1044
 28	 1045
 28	 1046
 28	 1047
 28	 1048
 28	 1049
 28	 1050
 28	 1051
 28	 1052
 28	 1053
 28	 1054
 28	 1055
 28	 1056
 28	 1057
 29	 877
 29	 878
 29	 879
 29	 880
 29	 881
 29	 882
 29	 883
 29	 884
 29	 885
 29	 886
 29	 887
 29	 888
 29	 889
 29	 890
 29	 891
 29	 892
 29	 893
 29	 894
 29	 895
 29	 896
 29	 897
 29	 898
 29	 899
 29	 900
 29	 901
 29	 902
 29	 903
 29	 904
 29	 905
 29	 906
 29	 907
 29	 908
 29	 909
 29	 910
 29	 911
 29	 912
 29	 913
 29	 914
 29	 915
 29	 916
 29	 917
 29	 918
 29	 919
 29	 920
 29	 921
 29	 922
 29	 923
 29	 924
 29	 925
 29	 926
 29	 927
 29	 928
 29	 929
 29	 930
 29	 931
 29	 932
 29	 933
 29	 934
 29	 935
 29	 936
 29	 937
 29	 938
 29	 939
 29	 940
 29	 941
 29	 942
 29	 943
 29	 944
 29	 945
 29	 946
 29	 947
 29	 948
 29	 949
 29	 950
 29	 951
 29	 952
 29	 953
 29	 954
 29	 955
 29	 956
 29	 957
 29	 958
 29	 959
 29	 960
 29	 961
 29	 962
 29	 963
 29	 964
 29	 965
 29	 966
 29	 967
 29	 968
 29	 969
 29	 970
 29	 971
 29	 972
 29	 973
 29	 974
 29	 975
 29	 976
 29	 977
 29	 978
 29	 979
 29	 980
 29	 981
 29	 982
 29	 983
 29	 984
 29	 985
 29	 986
 29	 987
 29	 988
 29	 989
 29	 990
 29	 991
 29	 992
 29	 993
 29	 994
 29	 995
 29	 996
 29	 997
 29	 998
 29	 999
 29	 1000
 29	 1001
 29	 1002
 29	 1003
 29	 1004
 29	 1005
 29	 1006
 29	 1007
 29	 1008
 29	 1009
 29	 1010
 29	 1011
 29	 1012
 29	 1013
 29	 1014
 29	 1015
 29	 1016
 29	 1017
 29	 1018
 29	 1019
 29	 1020
 29	 1021
 29	 1022
 29	 1023
 29	 1024
 29	 1025
 29	 1026
 29	 1027
 29	 1028
 29	 1029
 29	 1030
 29	 1031
 29	 1032
 29	 1033
 29	 1034
 29	 1035
 29	 1036
 29	 1037
 29	 1038
 29	 1039
 29	 1040
 29	 1041
 29	 1042
 29	 1043
 29	 1044
 29	 1045
 29	 1046
 29	 1047
 29	 1048
 29	 1049
 29	 1050
 29	 1051
 29	 1052
 29	 1053
 29	 1054
 29	 1055
 29	 1056
 29	 1057
 30	 877
 30	 878
 30	 879
 30	 880
 30	 881
 30	 882
 30	 883
 30	 884
 30	 885
 30	 886
 30	 887
 30	 888
 30	 889
 30	 890
 30	 891
 30	 892
 30	 893
 30	 894
 30	 895
 30	 896
 30	 897
 30	 898
 30	 899
 30	 900
 30	 901
 30	 902
 30	 903
 30	 904
 30	 905
 30	 906
 30	 907
 30	 908
 30	 909
 30	 910
 30	 911
 30	 912
 30	 913
 30	 914
 30	 915
 30	 916
 30	 917
 30	 918
 30	 919
 30	 920
 30	 921
 30	 922
 30	 923
 30	 924
 30	 925
 30	 926
 30	 927
 30	 928
 30	 929
 30	 930
 30	 931
 30	 932
 30	 933
 30	 934
 30	 935
 30	 936
 30	 937
 30	 938
 30	 939
 30	 940
 30	 941
 30	 942
 30	 943
 30	 944
 30	 945
 30	 946
 30	 947
 30	 948
 30	 949
 30	 950
 30	 951
 30	 952
 30	 953
 30	 954
 30	 955
 30	 956
 30	 957
 30	 958
 30	 959
 30	 960
 30	 961
 30	 962
 30	 963
 30	 964
 30	 965
 30	 966
 30	 967
 30	 968
 30	 969
 30	 970
 30	 971
 30	 972
 30	 973
 30	 974
 30	 975
 30	 976
 31	 877
 31	 878
 31	 879
 31	 880
 32	 877
 32	 878
 32	 879
 32	 880
 33	 877
 33	 878
 33	 879
 33	 880
 34	 877
 34	 878
 34	 879
 34	 880
 35	 877
 35	 878
 35	 879
 35	 880
 36	 877
 36	 878
 36	 879
 36	 880
 37	 877
 37	 878
 37	 879
 37	 880
 38	 877
 38	 878
 38	 879
 38	 880
 39	 877
 39	 878
 39	 879
 39	 880
 40	 877
 40	 878
 40	 879
 40	 880
 41	 877
 41	 878
 41	 879
 41	 880
 42	 877
 42	 878
 42	 879
 42	 880
 43	 877
 43	 878
 43	 879
 43	 880
 44	 877
 44	 878
 44	 879
 44	 880
 45	 877
 45	 878
 45	 879
 45	 880
 46	 877
 46	 878
 46	 879
 46	 880
 47	 877
 47	 878
 47	 879
 47	 880
 48	 877
 48	 878
 48	 879
 48	 880
 49	 877
 49	 878
 49	 879
 49	 880
 50	 877
 50	 878
 50	 879
 50	 880
 51	 877
 51	 878
 51	 879
 51	 880
 52	 877
 52	 878
 52	 879
 52	 880
 53	 877
 53	 878
 53	 879
 53	 880
 54	 877
 54	 878
 54	 879
 54	 880
 55	 877
 55	 878
 55	 879
 55	 880
 56	 877
 56	 878
 56	 879
 56	 880
 57	 877
 57	 878
 57	 879
 57	 880
 58	 877
 58	 878
 58	 879
 58	 880
 59	 877
 59	 878
 59	 879
 59	 880
 60	 877
 60	 878
 60	 879
 60	 880
 61	 877
 61	 878
 61	 879
 61	 880
 62	 877
 62	 878
 62	 879
 62	 880
 63	 877
 63	 878
 63	 879
 63	 880
 64	 877
 64	 878
 64	 879
 64	 880
 65	 877
 65	 878
 65	 879
 65	 880
 66	 877
 66	 878
 66	 879
 66	 880
 67	 877
 67	 878
 67	 879
 67	 880
 68	 877
 68	 878
 68	 879
 68	 880
 69	 877
 69	 878
 69	 879
 69	 880
 70	 877
 70	 878
 70	 879
 70	 880
 71	 877
 71	 878
 71	 879
 71	 880
 72	 877
 72	 878
 72	 879
 72	 880
 73	 877
 73	 878
 73	 879
 73	 880
 74	 877
 74	 878
 74	 879
 74	 880
 75	 877
 75	 878
 75	 879
 75	 880
 76	 877
 76	 878
 76	 879
 76	 880
 77	 877
 77	 878
 77	 879
 77	 880
 78	 877
 78	 878
 78	 879
 78	 880
 79	 877
 79	 878
 79	 879
 79	 880
 80	 877
 80	 878
 80	 879
 80	 880
 81	 877
 81	 878
 81	 879
 81	 880
 82	 877
 82	 878
 82	 879
 82	 880
 83	 877
 83	 878
 83	 879
 83	 880
 84	 877
 84	 878
 84	 879
 84	 880
 85	 877
 85	 878
 85	 879
 85	 880
 86	 877
 86	 878
 86	 879
 86	 880
 87	 877
 87	 878
 87	 879
 87	 880
 88	 877
 88	 878
 88	 879
 88	 880
 89	 877
 89	 878
 89	 879
 89	 880
 90	 877
 90	 878
 90	 879
 90	 880
 91	 877
 91	 878
 91	 879
 91	 880
 92	 877
 92	 878
 92	 879
 92	 880
 93	 877
 93	 878
 93	 879
 93	 880
 93	 1052
 93	 1053
 93	 1054
 94	 877
 94	 878
 94	 879
 94	 880
 94	 1052
 94	 1053
 94	 1054
 95	 877
 95	 878
 95	 879
 95	 880
 95	 1052
 95	 1053
 95	 1054
 96	 877
 96	 878
 96	 879
 96	 880
 96	 1052
 96	 1053
 96	 1054
 97	 877
 97	 878
 97	 879
 97	 880
 97	 1052
 97	 1053
 97	 1054
 97	 1055
 98	 877
 98	 878
 98	 879
 98	 880
 98	 1052
 98	 1053
 98	 1054
 98	 1055
 99	 877
 99	 878
 99	 879
 99	 880
 99	 1052
 99	 1053
 99	 1054
 99	 1055
 99	 1056
 100	 877
 100	 878
 100	 879
 100	 880
 100	 1052
 100	 1053
 100	 1055
 100	 1056
 101	 877
 101	 878
 101	 879
 101	 880
 101	 1052
 101	 1053
 101	 1055
 101	 1056
 101	 1057
 102	 877
 102	 878
 102	 879
 102	 880
 102	 1052
 102	 1053
 102	 1056
 102	 1057
 103	 877
 103	 878
 103	 879
 103	 880
 103	 1052
 103	 1053
 103	 1056
 103	 1057
 104	 877
 104	 878
 104	 879
 104	 880
 104	 1052
 104	 1053
 104	 1056
 104	 1057
 104	 1058
 105	 877
 105	 878
 105	 879
 105	 880
 105	 1052
 105	 1053
 105	 1057
 105	 1058
 106	 877
 106	 878
 106	 879
 106	 880
 106	 1052
 106	 1053
 106	 1057
 106	 1058
 107	 877
 107	 878
 107	 879
 107	 880
 107	 1052
 107	 1053
 107	 1057
 107	 1058
 107	 1059
 108	 877
 108	 878
 108	 879
 108	 880
 108	 1052
 108	 1053
 108	 1058
 108	 1059
 109	 877
 109	 878
 109	 879
 109	 880
 109	 1052
 109	 1053
 109	 1058
 109	 1059
 110	 877
 110	 878
 110	 879
 110	 880
 110	 1052
 110	 1053
 110	 1058
 110	 1059
 110	 1060
 111	 877
 111	 878
 111	 879
 111	 880
 111	 1052
 111	 1053
 111	 1059
 111	 1060
 111	 1061
 112	 877
 112	 878
 112	 879
 112	 880
 112	 1052
 112	 1053
 112	 1060
 112	 1061
 113	 877
 113	 878
 113	 879
 113	 880
 113	 1052
 113	 1053
 113	 1060
 113	 1061
 114	 877
 114	 878
 114	 879
 114	 880
 114	 1052
 114	 1053
 114	 1060
 114	 1061
 115	 877
 115	 878
 115	 879
 115	 880
 115	 881
 115	 882
 115	 883
 115	 884
 115	 885
 115	 886
 115	 887
 115	 888
 115	 889
 115	 890
 115	 891
 115	 892
 115	 893
 115	 894
 115	 895
 115	 896
 115	 897
 115	 898
 115	 899
 115	 900
 115	 901
 115	 902
 115	 903
 115	 904
 115	 905
 115	 906
 115	 907
 115	 908
 115	 909
 115	 910
 115	 911
 115	 912
 115	 913
 115	 914
 115	 915
 115	 916
 115	 917
 115	 918
 115	 919
 115	 920
 115	 921
 115	 922
 115	 923
 115	 924
 115	 925
 115	 926
 115	 927
 115	 928
 115	 929
 115	 930
 115	 931
 115	 932
 115	 933
 115	 934
 115	 935
 115	 936
 115	 937
 115	 938
 115	 939
 115	 940
 115	 941
 115	 942
 115	 943
 115	 944
 115	 945
 115	 946
 115	 947
 115	 948
 115	 949
 115	 950
 115	 951
 115	 952
 115	 953
 115	 954
 115	 955
 115	 956
 115	 957
 115	 958
 115	 1052
 115	 1053
 115	 1060
 115	 1061
 116	 877
 116	 878
 116	 879
 116	 880
 116	 881
 116	 882
 116	 883
 116	 884
 116	 885
 116	 886
 116	 887
 116	 888
 116	 889
 116	 890
 116	 891
 116	 892
 116	 893
 116	 894
 116	 895
 116	 896
 116	 897
 116	 898
 116	 899
 116	 900
 116	 901
 116	 902
 116	 903
 116	 904
 116	 905
 116	 906
 116	 907
 116	 908
 116	 909
 116	 910
 116	 911
 116	 912
 116	 913
 116	 914
 116	 915
 116	 916
 116	 917
 116	 918
 116	 919
 116	 920
 116	 921
 116	 922
 116	 923
 116	 924
 116	 925
 116	 926
 116	 927
 116	 928
 116	 929
 116	 930
 116	 931
 116	 932
 116	 933
 116	 934
 116	 935
 116	 936
 116	 937
 116	 938
 116	 939
 116	 940
 116	 941
 116	 942
 116	 943
 116	 944
 116	 945
 116	 946
 116	 947
 116	 948
 116	 949
 116	 950
 116	 951
 116	 952
 116	 953
 116	 954
 116	 955
 116	 956
 116	 957
 116	 958
 116	 959
 116	 960
 116	 961
 116	 962
 116	 963
 116	 964
 116	 965
 116	 966
 116	 967
 116	 968
 116	 969
 116	 970
 116	 971
 116	 972
 116	 973
 116	 974
 116	 975
 116	 976
 116	 977
 116	 978
 116	 979
 116	 980
 116	 981
 116	 982
 116	 983
 116	 984
 116	 985
 116	 986
 116	 987
 116	 988
 116	 989
 116	 990
 116	 991
 116	 992
 116	 993
 116	 994
 116	 995
 116	 996
 116	 997
 116	 998
 116	 999
 116	 1000
 116	 1001
 116	 1002
 116	 1003
 116	 1004
 116	 1005
 116	 1006
 116	 1007
 116	 1008
 116	 1009
 116	 1010
 116	 1011
 116	 1012
 116	 1013
 116	 1014
 116	 1015
 116	 1016
 116	 1017
 116	 1018
 116	 1019
 116	 1020
 116	 1021
 116	 1022
 116	 1023
 116	 1024
 116	 1025
 116	 1026
 116	 1027
 116	 1028
 116	 1029
 116	 1030
 116	 1031
 116	 1032
 116	 1033
 116	 1034
 116	 1035
 116	 1036
 116	 1037
 116	 1038
 116	 1039
 116	 1040
 116	 1041
 116	 1042
 116	 1043
 116	 1044
 116	 1045
 116	 1046
 116	 1047
 116	 1048
 116	 1049
 116	 1050
 116	 1051
 116	 1052
 116	 1053
 116	 1054
 116	 1055
 116	 1056
 116	 1057
 116	 1060
 116	 1061
 117	 877
 117	 878
 117	 879
 117	 880
 117	 881
 117	 882
 117	 883
 117	 884
 117	 885
 117	 886
 117	 887
 117	 888
 117	 889
 117	 890
 117	 891
 117	 892
 117	 893
 117	 894
 117	 895
 117	 896
 117	 897
 117	 898
 117	 899
 117	 900
 117	 901
 117	 902
 117	 903
 117	 904
 117	 905
 117	 906
 117	 907
 117	 908
 117	 909
 117	 910
 117	 911
 117	 912
 117	 913
 117	 914
 117	 915
 117	 916
 117	 917
 117	 918
 117	 919
 117	 920
 117	 921
 117	 922
 117	 923
 117	 924
 117	 925
 117	 926
 117	 927
 117	 928
 117	 929
 117	 930
 117	 931
 117	 932
 117	 933
 117	 934
 117	 935
 117	 936
 117	 937
 117	 938
 117	 939
 117	 940
 117	 941
 117	 942
 117	 943
 117	 944
 117	 945
 117	 946
 117	 947
 117	 948
 117	 949
 117	 950
 117	 951
 117	 952
 117	 953
 117	 954
 117	 955
 117	 956
 117	 957
 117	 958
 117	 959
 117	 960
 117	 961
 117	 962
 117	 963
 117	 964
 117	 965
 117	 966
 117	 967
 117	 968
 117	 969
 117	 970
 117	 971
 117	 972
 117	 973
 117	 974
 117	 975
 117	 976
 117	 977
 117	 978
 117	 979
 117	 980
 117	 981
 117	 982
 117	 983
 117	 984
 117	 985
 117	 986
 117	 987
 117	 988
 117	 989
 117	 990
 117	 991
 117	 992
 117	 993
 117	 994
 117	 995
 117	 996
 117	 997
 117	 998
 117	 999
 117	 1000
 117	 1001
 117	 1002
 117	 1003
 117	 1004
 117	 1005
 117	 1006
 117	 1007
 117	 1008
 117	 1009
 117	 1010
 117	 1011
 117	 1012
 117	 1013
 117	 1014
 117	 1015
 117	 1016
 117	 1017
 117	 1018
 117	 1019
 117	 1020
 117	 1021
 117	 1022
 117	 1023
 117	 1024
 117	 1025
 117	 1026
 117	 1027
 117	 1028
 117	 1029
 117	 1030
 117	 1031
 117	 1032
 117	 1033
 117	 1034
 117	 1035
 117	 1036
 117	 1037
 117	 1038
 117	 1039
 117	 1040
 117	 1041
 117	 1042
 117	 1043
 117	 1044
 117	 1045
 117	 1046
 117	 1047
 117	 1048
 117	 1049
 117	 1050
 117	 1051
 117	 1052
 117	 1053
 117	 1054
 117	 1055
 117	 1056
 117	 1057
 117	 1060
 117	 1061
 118	 883
 118	 884
 118	 885
 118	 886
 118	 887
 118	 888
 118	 889
 118	 890
 118	 891
 118	 892
 118	 893
 118	 894
 118	 895
 118	 896
 118	 897
 118	 898
 118	 899
 118	 900
 118	 901
 118	 902
 118	 903
 118	 904
 118	 905
 118	 906
 118	 907
 118	 908
 118	 909
 118	 910
 118	 911
 118	 912
 118	 913
 118	 914
 118	 915
 118	 916
 118	 917
 118	 918
 118	 919
 118	 920
 118	 921
 118	 922
 118	 923
 118	 924
 118	 925
 118	 926
 118	 927
 118	 928
 118	 929
 118	 930
 118	 931
 118	 932
 118	 933
 118	 934
 118	 935
 118	 936
 118	 937
 118	 938
 118	 939
 118	 940
 118	 941
 118	 942
 118	 943
 118	 944
 118	 945
 118	 946
 118	 947
 118	 948
 118	 949
 118	 950
 118	 951
 118	 952
 118	 953
 118	 954
 118	 955
 118	 956
 118	 957
 118	 958
 118	 959
 118	 960
 118	 961
 118	 962
 118	 963
 118	 964
 118	 965
 118	 966
 118	 967
 118	 968
 118	 969
 118	 970
 118	 971
 118	 972
 118	 973
 118	 974
 118	 975
 118	 976
 118	 977
 118	 978
 118	 979
 118	 980
 118	 981
 118	 982
 118	 983
 118	 984
 118	 985
 118	 986
 118	 987
 118	 988
 118	 989
 118	 990
 118	 991
 118	 992
 118	 993
 118	 994
 118	 995
 118	 996
 118	 997
 118	 998
 118	 999
 118	 1000
 118	 1001
 118	 1002
 118	 1003
 118	 1004
 118	 1005
 118	 1006
 118	 1007
 118	 1008
 118	 1009
 118	 1010
 118	 1011
 118	 1012
 118	 1013
 118	 1014
 118	 1015
 118	 1016
 118	 1017
 118	 1018
 118	 1019
 118	 1020
 118	 1021
 118	 1022
 118	 1023
 118	 1024
 118	 1025
 118	 1026
 118	 1027
 118	 1028
 118	 1029
 118	 1030
 118	 1031
 118	 1032
 118	 1033
 118	 1034
 118	 1035
 118	 1036
 118	 1037
 118	 1038
 118	 1039
 118	 1040
 118	 1041
 118	 1042
 118	 1043
 118	 1044
 118	 1045
 118	 1046
 118	 1047
 118	 1048
 118	 1049
 118	 1050
 118	 1051
 118	 1052
 118	 1053
 118	 1054
 118	 1055
 118	 1056
 118	 1057
 118	 1060
 118	 1061
 119	 983
 119	 984
 119	 985
 119	 986
 119	 987
 119	 988
 119	 989
 119	 990
 119	 991
 119	 992
 119	 993
 119	 994
 119	 995
 119	 996
 119	 997
 119	 998
 119	 999
 119	 1000
 119	 1001
 119	 1002
 119	 1003
 119	 1004
 119	 1005
 119	 1006
 119	 1007
 119	 1008
 119	 1009
 119	 1010
 119	 1011
 119	 1012
 119	 1013
 119	 1014
 119	 1015
 119	 1016
 119	 1017
 119	 1018
 119	 1019
 119	 1020
 119	 1021
 119	 1022
 119	 1023
 119	 1024
 119	 1025
 119	 1026
 119	 1027
 119	 1028
 119	 1029
 119	 1030
 119	 1031
 119	 1032
 119	 1033
 119	 1034
 119	 1035
 119	 1036
 119	 1037
 119	 1038
 119	 1039
 119	 1040
 119	 1041
 119	 1042
 119	 1043
 119	 1044
 119	 1045
 119	 1046
 119	 1047
 119	 1048
 119	 1049
 119	 1050
 119	 1051
 119	 1052
 119	 1053
 119	 1054
 119	 1055
 119	 1056
 119	 1057
 119	 1060
 119	 1061
 120	 1052
 120	 1053
 120	 1054
 120	 1055
 120	 1056
 120	 1057
 120	 1060
 120	 1061
 121	 1053
 121	 1054
 121	 1055
 121	 1056
 121	 1057
 121	 1060
 121	 1061
 122	 1053
 122	 1054
 122	 1055
 122	 1056
 122	 1057
 122	 1060
 122	 1061
 123	 1053
 123	 1054
 123	 1055
 123	 1056
 123	 1057
 123	 1060
 123	 1061
 124	 1053
 124	 1054
 124	 1055
 124	 1056
 124	 1057
 124	 1060
 124	 1061
 125	 1053
 125	 1054
 125	 1055
 125	 1056
 125	 1057
 125	 1060
 125	 1061
 126	 1053
 126	 1054
 126	 1055
 126	 1060
 126	 1061
 127	 1053
 127	 1054
 127	 1055
 127	 1060
 127	 1061
 128	 1053
 128	 1054
 128	 1055
 128	 1060
 128	 1061
 129	 1053
 129	 1054
 129	 1055
 129	 1060
 129	 1061
 130	 1053
 130	 1054
 130	 1055
 130	 1056
 130	 1060
 130	 1061
 131	 1053
 131	 1054
 131	 1055
 131	 1056
 131	 1060
 131	 1061
 132	 1049
 132	 1050
 132	 1051
 132	 1052
 132	 1053
 132	 1054
 132	 1055
 132	 1056
 132	 1059
 132	 1060
 132	 1061
 133	 1049
 133	 1050
 133	 1051
 133	 1052
 133	 1053
 133	 1054
 133	 1055
 133	 1056
 133	 1059
 133	 1060
 134	 1049
 134	 1050
 134	 1051
 134	 1052
 134	 1053
 134	 1054
 134	 1055
 134	 1056
 134	 1058
 134	 1059
 134	 1060
 135	 1049
 135	 1050
 135	 1051
 135	 1052
 135	 1053
 135	 1054
 135	 1055
 135	 1056
 135	 1058
 135	 1059
 136	 1050
 136	 1051
 136	 1052
 136	 1053
 136	 1054
 136	 1055
 136	 1056
 136	 1058
 136	 1059
 137	 1051
 137	 1052
 137	 1053
 137	 1054
 137	 1055
 137	 1056
 137	 1057
 137	 1058
 137	 1059
 138	 1052
 138	 1053
 138	 1054
 138	 1055
 138	 1056
 138	 1057
 138	 1058
 138	 1059
 139	 1051
 139	 1052
 139	 1053
 139	 1054
 139	 1055
 139	 1056
 139	 1057
 139	 1058
 139	 1059
 140	 1052
 140	 1053
 140	 1054
 140	 1055
 140	 1056
 140	 1057
 140	 1058
 140	 1059
 141	 1053
 141	 1054
 141	 1055
 141	 1056
 141	 1057
 141	 1058
 142	 1052
 142	 1053
 142	 1054
 142	 1055
 142	 1056
 142	 1057
 143	 1051
 143	 1052
 143	 1053
 143	 1054
 143	 1055
 143	 1056
 143	 1057
 144	 1051
 144	 1052
 144	 1053
 144	 1054
 144	 1055
 144	 1056
 145	 1051
 145	 1052
 145	 1053
 145	 1054
 145	 1055
 145	 1056
 146	 1050
 146	 1051
 146	 1052
 146	 1053
 146	 1054
 146	 1055
 146	 1056
 147	 1049
 147	 1050
 147	 1051
 147	 1052
 147	 1053
 147	 1054
 147	 1055
 147	 1056
 148	 1047
 148	 1048
 148	 1049
 148	 1050
 148	 1051
 148	 1052
 148	 1053
 148	 1054
 148	 1055
 148	 1056
 149	 1046
 149	 1047
 149	 1048
 149	 1049
 149	 1050
 149	 1051
 149	 1052
 149	 1054
 149	 1055
 150	 1045
 150	 1046
 150	 1047
 150	 1048
 150	 1049
 150	 1050
 150	 1054
 150	 1055
 151	 1044
 151	 1045
 151	 1046
 151	 1047
 151	 1048
 151	 1049
 152	 1043
 152	 1044
 152	 1045
 152	 1046
 152	 1047
 152	 1048
 153	 1043
 153	 1044
 153	 1045
 153	 1046
 153	 1047
 154	 1042
 154	 1043
 154	 1044
 154	 1045
 154	 1046
 155	 1042
 155	 1043
 155	 1044
 155	 1045
 155	 1046
 155	 1047
 156	 1043
 156	 1044
 156	 1045
 156	 1046
 156	 1047
 157	 1044
 157	 1045
 157	 1046
 157	 1047
 157	 1048
 157	 1049
 158	 1044
 158	 1045
 158	 1046
 158	 1047
 158	 1048
 158	 1049
 158	 1050
 159	 1045
 159	 1046
 159	 1047
 159	 1048
 159	 1049
 159	 1050
 160	 1047
 160	 1048
 160	 1049
 160	 1050
 160	 1051
 161	 1047
 161	 1048
 161	 1049
 161	 1050
 161	 1051
 161	 1052
 162	 1047
 162	 1048
 162	 1049
 162	 1050
 162	 1051
 162	 1052
 162	 1053
 163	 1049
 163	 1050
 163	 1051
 163	 1052
 163	 1053
 163	 1054
 163	 1055
 164	 1050
 164	 1051
 164	 1052
 164	 1053
 164	 1054
 164	 1055
 164	 1056
 164	 1057
 165	 1051
 165	 1052
 165	 1053
 165	 1054
 165	 1055
 165	 1056
 165	 1057
 165	 1058
 165	 1059
 166	 1053
 166	 1054
 166	 1055
 166	 1056
 166	 1057
 166	 1058
 166	 1059
 166	 1060
 167	 1055
 167	 1056
 167	 1057
 167	 1058
 167	 1059
 167	 1060
 167	 1061
 167	 1062
 167	 1063
 168	 1057
 168	 1058
 168	 1059
 168	 1060
 168	 1061
 168	 1062
 168	 1063
 168	 1064
 168	 1065
 168	 1066
 168	 1067
 168	 1068
 168	 1069
 168	 1070
 169	 1059
 169	 1060
 169	 1061
 169	 1062
 169	 1063
 169	 1064
 169	 1065
 169	 1066
 169	 1067
 169	 1068
 169	 1069
 169	 1070
 169	 1071
 169	 1072
 169	 1073
 169	 1074
 169	 1075
 169	 1076
 169	 1077
 169	 1078
 169	 1079
 169	 1080
 170	 1048
 170	 1049
 170	 1050
 170	 1051
 170	 1052
 170	 1053
 170	 1054
 170	 1055
 170	 1056
 170	 1057
 170	 1058
 170	 1059
 170	 1060
 170	 1061
 170	 1062
 170	 1063
 170	 1064
 170	 1065
 170	 1066
 170	 1067
 170	 1068
 170	 1069
 170	 1070
 170	 1071
 170	 1072
 170	 1073
 170	 1074
 170	 1075
 170	 1076
 170	 1077
 170	 1078
 170	 1079
 170	 1080
 170	 1081
 170	 1082
 170	 1083
 170	 1084
 170	 1085
 170	 1086
 170	 1087
 171	 1045
 171	 1046
 171	 1047
 171	 1048
 171	 1049
 171	 1050
 171	 1051
 171	 1052
 171	 1053
 171	 1054
 171	 1055
 171	 1056
 171	 1057
 171	 1058
 171	 1059
 171	 1060
 171	 1061
 171	 1062
 171	 1063
 171	 1064
 171	 1065
 171	 1066
 171	 1067
 171	 1068
 171	 1069
 171	 1070
 171	 1071
 171	 1072
 171	 1073
 171	 1074
 171	 1075
 171	 1076
 171	 1077
 171	 1078
 171	 1079
 171	 1080
 171	 1081
 171	 1082
 171	 1083
 171	 1084
 172	 1045
 172	 1046
 172	 1047
 172	 1048
 172	 1049
 172	 1050
 172	 1051
 172	 1052
 172	 1053
 172	 1054
 172	 1055
 172	 1056
 172	 1057
 172	 1058
 172	 1059
 172	 1060
 172	 1061
 172	 1062
 172	 1063
 172	 1064
 172	 1065
 172	 1066
 172	 1067
 172	 1068
 172	 1069
 172	 1070
 172	 1071
 172	 1072
 172	 1073
 172	 1074
 173	 1045
 173	 1046
 173	 1047
 173	 1048
 173	 1049
 173	 1050
 173	 1051
 173	 1052
 173	 1053
 173	 1054
 173	 1055
 173	 1056
 173	 1057
 173	 1058
 173	 1059
 173	 1060
 173	 1061
 173	 1062
 173	 1063
 173	 1064
 173	 1065
 173	 1066
 173	 1067
 173	 1068
 173	 1069
 173	 1070
 173	 1071
 173	 1072
 174	 1046
 174	 1047
 174	 1048
 174	 1049
 174	 1050
 174	 1051
 174	 1052
 174	 1053
 174	 1054
 174	 1055
 174	 1056
 174	 1057
 174	 1058
 174	 1059
 174	 1060
 174	 1061
 174	 1062
 174	 1063
 174	 1064
 174	 1065
 174	 1066
 174	 1067
 174	 1068
 174	 1069
 174	 1070
 174	 1071
 174	 1072
 175	 1054
 175	 1055
 175	 1056
 175	 1057
 175	 1058
 175	 1059
 175	 1060
 175	 1061
 175	 1062
 175	 1063
 175	 1064
 175	 1065
 175	 1066
 176	 1056
 176	 1057
 176	 1058
 176	 1059
 176	 1060
 176	 1061
 176	 1062
 176	 1063
 176	 1064
 176	 1065
 177	 1058
 177	 1059
 177	 1060
 177	 1061
 177	 1062
 177	 1063
 177	 1064
 177	 1065
 177	 1066
 178	 1061
 178	 1062
 178	 1063
 178	 1064
 178	 1065
 178	 1066
 178	 1067
 178	 1068
 179	 1062
 179	 1063
 179	 1064
 179	 1065
 179	 1066
 179	 1067
 179	 1068
 180	 1063
 180	 1064
 180	 1065
 180	 1066
 180	 1067
 180	 1068
 180	 1069
 181	 1065
 181	 1066
 181	 1067
 181	 1068
 181	 1069
 181	 1070
 182	 1066
 182	 1067
 182	 1068
 182	 1069
 182	 1070
 183	 1067
 183	 1068
 183	 1069
 183	 1070
 183	 1071
 183	 1072
 183	 1073
 184	 1068
 184	 1069
 184	 1070
 184	 1071
 184	 1072
 184	 1073
 184	 1074
 184	 1075
 184	 1076
 185	 1068
 185	 1069
 185	 1070
 185	 1071
 185	 1072
 185	 1073
 185	 1074
 185	 1075
 185	 1076
 185	 1077
 186	 1070
 186	 1071
 186	 1072
 186	 1073
 186	 1074
 186	 1075
 186	 1076
 186	 1077
 187	 1069
 187	 1070
 187	 1071
 187	 1072
 187	 1073
 187	 1074
 187	 1075
 187	 1076
 187	 1077
 187	 1078
 187	 1079
 187	 1080
 187	 1081
 188	 1069
 188	 1070
 188	 1071
 188	 1072
 188	 1073
 188	 1074
 188	 1075
 188	 1076
 188	 1077
 188	 1078
 188	 1079
 188	 1080
 188	 1081
 188	 1082
 189	 1072
 189	 1073
 189	 1074
 189	 1075
 189	 1076
 189	 1077
 189	 1078
 189	 1079
 189	 1080
 189	 1081
 189	 1082
 189	 1083
 190	 1077
 190	 1078
 190	 1079
 190	 1080
 190	 1081
 190	 1082
 190	 1083
 190	 1084
 190	 1085
 190	 1086
 191	 1078
 191	 1079
 191	 1080
 191	 1081
 191	 1082
 191	 1083
 191	 1084
 191	 1085
 191	 1086
 191	 1087
 191	 1088
 191	 1089
 191	 1090
 191	 1091
 192	 1078
 192	 1079
 192	 1080
 192	 1081
 192	 1082
 192	 1083
 192	 1084
 192	 1085
 192	 1086
 192	 1087
 192	 1088
 192	 1089
 192	 1090
 192	 1091
 192	 1092
 192	 1093
 193	 1082
 193	 1083
 193	 1084
 193	 1085
 193	 1086
 193	 1087
 193	 1088
 193	 1089
 193	 1090
 193	 1091
 193	 1092
 193	 1093
 193	 1094
 193	 1095
 194	 1086
 194	 1087
 194	 1088
 194	 1089
 194	 1090
 194	 1091
 194	 1092
 194	 1093
 194	 1094
 194	 1095
 195	 1087
 195	 1088
 195	 1089
 195	 1090
 195	 1091
 195	 1092
 195	 1093
 195	 1094
 195	 1095
 196	 1088
 196	 1089
 196	 1090
 196	 1091
 196	 1092
 196	 1093
 196	 1094
 196	 1095
 196	 1096
 197	 1090
 197	 1091
 197	 1092
 197	 1093
 197	 1094
 197	 1095
 197	 1096
 197	 1097
 198	 1092
 198	 1093
 198	 1094
 198	 1095
 198	 1096
 198	 1097
 199	 1093
 199	 1094
 199	 1095
 199	 1096
 199	 1097
 199	 1098
 200	 1093
 200	 1094
 200	 1095
 200	 1096
 200	 1097
 200	 1098
 201	 1094
 201	 1095
 201	 1096
 201	 1097
 201	 1098
 202	 1095
 202	 1096
 202	 1097
 202	 1098
 202	 1099
 202	 1100
 203	 1095
 203	 1096
 203	 1097
 203	 1098
 203	 1099
 203	 1100
 203	 1101
 203	 1102
 204	 1096
 204	 1097
 204	 1098
 204	 1099
 204	 1100
 204	 1101
 204	 1102
 204	 1103
 204	 1104
 204	 1105
 204	 1106
 205	 1098
 205	 1099
 205	 1100
 205	 1101
 205	 1102
 205	 1103
 205	 1104
 205	 1105
 205	 1106
 205	 1107
 205	 1108
 205	 1109
 205	 1110
 206	 1100
 206	 1101
 206	 1102
 206	 1103
 206	 1104
 206	 1105
 206	 1106
 206	 1107
 206	 1108
 206	 1109
 206	 1110
 207	 1103
 207	 1104
 207	 1105
 207	 1106
 207	 1107
 207	 1108
 207	 1109
 207	 1110
 208	 1107
 208	 1108
 208	 1109
 208	 1110
 209	 1108
 209	 1109
 209	 1110
 210	 1108
 210	 1109
 210	 1110
 210	 1111
 211	 1104
 211	 1105
 211	 1106
 211	 1107
 211	 1108
 211	 1109
 211	 1110
 211	 1111
 211	 1112
 212	 1103
 212	 1104
 212	 1105
 212	 1106
 212	 1107
 212	 1108
 212	 1109
 212	 1110
 212	 1111
 212	 1112
 213	 1103
 213	 1104
 213	 1105
 213	 1106
 213	 1107
 213	 1108
 213	 1109
 213	 1110
 214	 1103
 214	 1104
 214	 1105
 214	 1106
 214	 1107
 214	 1108
 214	 1109
 214	 1110
 214	 1111
 214	 1112
 215	 1103
 215	 1104
 215	 1105
 215	 1106
 215	 1107
 215	 1108
 215	 1109
 215	 1110
 215	 1111
 215	 1112
 216	 1106
 216	 1107
 216	 1108
 216	 1109
 216	 1110
 216	 1111
 216	 1112
 216	 1113
 217	 1109
 217	 1110
 217	 1111
 217	 1112
 217	 1113
 218	 1109
 218	 1110
 218	 1111
 218	 1112
 218	 1113
 219	 1109
 219	 1110
 219	 1111
 219	 1112
 219	 1113
 219	 1114
 220	 1109
 220	 1110
 220	 1111
 220	 1112
 220	 1113
 220	 1114
 220	 1115
 221	 1110
 221	 1111
 221	 1112
 221	 1113
 221	 1114
 221	 1115
 222	 1108
 222	 1109
 222	 1110
 222	 1111
 222	 1112
 222	 1113
 222	 1114
 223	 1104
 223	 1105
 223	 1106
 223	 1107
 223	 1108
 223	 1109
 223	 1110
 223	 1111
 223	 1112
 223	 1113
 224	 1098
 224	 1099
 224	 1100
 224	 1101
 224	 1102
 224	 1103
 224	 1104
 224	 1105
 224	 1106
 224	 1107
 224	 1108
 224	 1109
 224	 1110
 224	 1111
 224	 1112
 225	 1094
 225	 1095
 225	 1096
 225	 1097
 225	 1098
 225	 1099
 225	 1100
 225	 1101
 225	 1102
 225	 1103
 225	 1104
 225	 1105
 225	 1106
 225	 1107
 225	 1108
 225	 1109
 225	 1110
 225	 1111
 226	 1089
 226	 1090
 226	 1091
 226	 1092
 226	 1093
 226	 1094
 226	 1095
 226	 1096
 226	 1097
 226	 1098
 226	 1099
 226	 1100
 226	 1101
 226	 1102
 226	 1103
 226	 1104
 226	 1105
 226	 1106
 226	 1107
 227	 1087
 227	 1088
 227	 1089
 227	 1090
 227	 1091
 227	 1092
 227	 1093
 227	 1094
 227	 1095
 227	 1096
 227	 1097
 227	 1098
 227	 1099
 227	 1100
 227	 1101
 227	 1102
 227	 1103
 228	 1087
 228	 1088
 228	 1089
 228	 1090
 228	 1091
 228	 1092
 228	 1093
 228	 1094
 228	 1095
 228	 1096
 228	 1097
 229	 1087
 229	 1088
 229	 1089
 229	 1090
 229	 1091
 229	 1092
 229	 1093
 230	 1085
 230	 1086
 230	 1087
 230	 1088
 230	 1089
 230	 1090
 230	 1091
 230	 1092
 230	 1093
 231	 1083
 231	 1084
 231	 1085
 231	 1086
 231	 1087
 231	 1088
 231	 1089
 231	 1090
 231	 1091
 231	 1092
 232	 1083
 232	 1084
 232	 1085
 232	 1086
 232	 1087
 232	 1088
 232	 1089
 232	 1090
 232	 1091
 233	 1080
 233	 1081
 233	 1082
 233	 1083
 233	 1084
 233	 1085
 233	 1086
 233	 1087
 233	 1088
 234	 1073
 234	 1074
 234	 1075
 234	 1076
 234	 1077
 234	 1078
 234	 1079
 234	 1080
 234	 1081
 234	 1082
 234	 1083
 234	 1084
 234	 1085
 234	 1086
 235	 1068
 235	 1069
 235	 1070
 235	 1071
 235	 1072
 235	 1073
 235	 1074
 235	 1075
 235	 1076
 235	 1077
 235	 1078
 235	 1079
 235	 1080
 235	 1081
 235	 1082
 235	 1083
 235	 1084
 235	 1085
 236	 1066
 236	 1067
 236	 1068
 236	 1069
 236	 1070
 236	 1071
 236	 1072
 236	 1073
 236	 1074
 236	 1075
 236	 1076
 236	 1077
 236	 1078
 236	 1079
 236	 1080
 236	 1081
 236	 1082
 236	 1083
 237	 1065
 237	 1066
 237	 1067
 237	 1068
 237	 1069
 237	 1070
 237	 1071
 237	 1072
 237	 1073
 237	 1074
 237	 1075
 237	 1076
 237	 1077
 237	 1078
 237	 1079
 238	 1065
 238	 1066
 238	 1067
 238	 1068
 238	 1069
 238	 1070
 238	 1071
 238	 1072
 239	 1064
 239	 1065
 239	 1066
 239	 1067
 239	 1068
 239	 1069
 239	 1070
 240	 1065
 240	 1066
 240	 1067
 240	 1068
 240	 1069
 240	 1070
 240	 1071
 241	 1066
 241	 1067
 241	 1068
 241	 1069
 241	 1070
 241	 1071
 241	 1072
 242	 1066
 242	 1067
 242	 1068
 242	 1069
 242	 1070
 242	 1071
 242	 1072
 243	 1069
 243	 1070
 243	 1071
 243	 1072
 243	 1073
 243	 1074
 244	 1069
 244	 1070
 244	 1071
 244	 1072
 244	 1073
 244	 1074
 244	 1075
 244	 1076
 244	 1077
 245	 1069
 245	 1070
 245	 1071
 245	 1072
 245	 1073
 245	 1074
 245	 1075
 245	 1076
 245	 1077
 245	 1078
 245	 1079
 245	 1080
 246	 1071
 246	 1072
 246	 1073
 246	 1074
 246	 1075
 246	 1076
 246	 1077
 246	 1078
 246	 1079
 246	 1080
 246	 1081
 247	 1074
 247	 1075
 247	 1076
 247	 1077
 247	 1078
 247	 1079
 247	 1080
 247	 1081
 247	 1082
 248	 1077
 248	 1078
 248	 1079
 248	 1080
 248	 1081
 248	 1082
 248	 1083
 249	 1079
 249	 1080
 249	 1081
 249	 1082
 249	 1083
 250	 1077
 250	 1078
 250	 1079
 250	 1080
 250	 1081
 250	 1082
 250	 1083
 250	 1084
 251	 1072
 251	 1073
 251	 1074
 251	 1075
 251	 1076
 251	 1077
 251	 1078
 251	 1079
 251	 1080
 251	 1081
 251	 1082
 251	 1083
 251	 1084
 252	 1067
 252	 1068
 252	 1069
 252	 1070
 252	 1071
 252	 1072
 252	 1073
 252	 1074
 252	 1075
 252	 1076
 252	 1077
 252	 1078
 252	 1079
 252	 1080
 252	 1081
 252	 1082
 253	 1065
 253	 1066
 253	 1067
 253	 1068
 253	 1069
 253	 1070
 253	 1071
 253	 1072
 253	 1073
 253	 1074
 253	 1075
 253	 1076
 253	 1077
 253	 1078
 253	 1079
 253	 1080
 254	 1063
 254	 1064
 254	 1065
 254	 1066
 254	 1067
 254	 1068
 254	 1069
 254	 1070
 254	 1071
 254	 1072
 254	 1073
 254	 1074
 254	 1075
 254	 1076
 255	 1061
 255	 1062
 255	 1063
 255	 1064
 255	 1065
 255	 1066
 255	 1067
 255	 1068
 255	 1069
 255	 1070
 255	 1071
 256	 1059
 256	 1060
 256	 1061
 256	 1062
 256	 1063
 256	 1064
 256	 1065
 256	 1066
 256	 1067
 257	 1056
 257	 1057
 257	 1058
 257	 1059
 257	 1060
 257	 1061
 257	 1062
 257	 1063
 257	 1064
 257	 1065
 258	 1053
 258	 1054
 258	 1055
 258	 1056
 258	 1057
 258	 1058
 258	 1059
 258	 1060
 258	 1061
 258	 1062
 258	 1063
 259	 1050
 259	 1051
 259	 1052
 259	 1053
 259	 1054
 259	 1055
 259	 1056
 259	 1057
 259	 1058
 259	 1059
 259	 1060
 259	 1061
 260	 1049
 260	 1050
 260	 1051
 260	 1052
 260	 1053
 260	 1054
 260	 1055
 260	 1056
 260	 1057
 260	 1058
 260	 1059
 261	 1048
 261	 1049
 261	 1050
 261	 1051
 261	 1052
 261	 1053
 261	 1054
 261	 1055
 261	 1056
 262	 1048
 262	 1049
 262	 1050
 262	 1051
 262	 1052
 262	 1053
 263	 1047
 263	 1048
 263	 1049
 263	 1050
 263	 1051
 264	 1046
 264	 1047
 264	 1048
 264	 1049
 264	 1050
 265	 1044
 265	 1045
 265	 1046
 265	 1047
 265	 1048
 265	 1049
 265	 1050
 266	 1044
 266	 1045
 266	 1046
 266	 1047
 266	 1048
 266	 1049
 267	 1044
 267	 1045
 267	 1046
 267	 1047
 267	 1048
 268	 1044
 268	 1045
 268	 1046
 268	 1047
 269	 1043
 269	 1044
 269	 1045
 269	 1046
 269	 1047
 270	 1043
 270	 1044
 270	 1045
 270	 1046
 270	 1047
 271	 1043
 271	 1044
 271	 1045
 271	 1046
 271	 1047
 272	 1042
 272	 1043
 272	 1044
 272	 1045
 273	 1042
 273	 1043
 273	 1044
 273	 1045
 274	 1042
 274	 1043
 274	 1044
 274	 1045
 275	 1041
 275	 1042
 275	 1043
 275	 1044
 275	 1045
 276	 1040
 276	 1041
 276	 1042
 276	 1043
 276	 1044
 276	 1045
 277	 1040
 277	 1041
 277	 1042
 277	 1043
 277	 1044
 277	 1045
 278	 1038
 278	 1039
 278	 1040
 278	 1041
 278	 1042
 278	 1043
 279	 1037
 279	 1038
 279	 1039
 279	 1040
 279	 1041
 279	 1042
 279	 1043
 280	 1037
 280	 1038
 280	 1039
 280	 1040
 280	 1041
 280	 1042
 281	 1037
 281	 1038
 281	 1039
 281	 1040
 282	 1037
 282	 1038
 282	 1039
 282	 1040
 283	 1037
 283	 1038
 283	 1039
 283	 1040
 284	 1037
 284	 1038
 284	 1039
 284	 1040
 285	 1037
 285	 1038
 285	 1039
 285	 1040
 286	 1036
 286	 1037
 286	 1038
 286	 1039
 286	 1040
 286	 1041
 287	 1036
 287	 1037
 287	 1038
 287	 1039
 287	 1040
 287	 1041
 287	 1042
 288	 1037
 288	 1038
 288	 1039
 288	 1040
 288	 1041
 289	 1035
 289	 1036
 289	 1037
 289	 1038
 289	 1039
 289	 1040
 290	 1034
 290	 1035
 290	 1036
 290	 1037
 290	 1038
 290	 1039
 290	 1040
 291	 1033
 291	 1034
 291	 1035
 291	 1036
 291	 1037
 291	 1038
 291	 1039
 292	 1033
 292	 1034
 292	 1035
 292	 1036
 292	 1037
 292	 1038
 293	 1033
 293	 1034
 293	 1035
 293	 1036
 294	 1033
 294	 1034
 294	 1035
 294	 1036
 294	 1037
 295	 1033
 295	 1034
 295	 1035
 295	 1036
 295	 1037
 296	 1034
 296	 1035
 296	 1036
 296	 1037
 297	 1033
 297	 1034
 297	 1035
 297	 1036
 297	 1037
 297	 1038
 298	 1032
 298	 1033
 298	 1034
 298	 1035
 298	 1036
 298	 1037
 298	 1038
 299	 1031
 299	 1032
 299	 1033
 299	 1034
 299	 1035
 299	 1036
 300	 1030
 300	 1031
 300	 1032
 300	 1033
 300	 1034
 300	 1035
 301	 1030
 301	 1031
 301	 1032
 301	 1033
 301	 1034
 302	 1030
 302	 1031
 302	 1032
 302	 1033
 302	 1034
 302	 1035
 303	 1030
 303	 1031
 303	 1032
 303	 1033
 303	 1034
 304	 1029
 304	 1030
 304	 1031
 304	 1032
 304	 1033
 305	 1026
 305	 1027
 305	 1028
 305	 1029
 305	 1030
 305	 1031
 305	 1032
 305	 1033
 306	 1025
 306	 1026
 306	 1027
 306	 1028
 306	 1029
 306	 1030
 306	 1031
 306	 1032
 307	 1024
 307	 1025
 307	 1026
 307	 1027
 307	 1028
 307	 1029
 307	 1030
 307	 1031
 308	 1023
 308	 1024
 308	 1025
 308	 1026
 308	 1027
 308	 1028
 308	 1029
 309	 1023
 309	 1024
 309	 1025
 309	 1026
 309	 1027
 309	 1028
 310	 1024
 310	 1025
 310	 1026
 310	 1027
 310	 1028
 310	 1029
 311	 1025
 311	 1026
 311	 1027
 311	 1028
 311	 1029
 311	 1030
 311	 1031
 312	 1026
 312	 1027
 312	 1028
 312	 1029
 312	 1030
 312	 1031
 312	 1032
 313	 1027
 313	 1028
 313	 1029
 313	 1030
 313	 1031
 314	 1027
 314	 1028
 314	 1029
 314	 1030
 314	 1031
 315	 1027
 315	 1028
 315	 1029
 315	 1030
 315	 1031
 316	 1027
 316	 1028
 316	 1029
 316	 1030
 316	 1031
 317	 1026
 317	 1027
 317	 1028
 317	 1029
 317	 1030
 318	 1025
 318	 1026
 318	 1027
 318	 1028
 318	 1029
 319	 1024
 319	 1025
 319	 1026
 319	 1027
 319	 1028
 319	 1029
 320	 1023
 320	 1024
 320	 1025
 320	 1026
 320	 1027
 320	 1028
 321	 1022
 321	 1023
 321	 1024
 321	 1025
 321	 1026
 321	 1027
 322	 1022
 322	 1023
 322	 1024
 322	 1025
 322	 1026
 323	 1022
 323	 1023
 323	 1024
 323	 1025
 323	 1026
 323	 1027
 324	 1023
 324	 1024
 324	 1025
 324	 1026
 324	 1027
 324	 1028
 325	 1023
 325	 1024
 325	 1025
 325	 1026
 325	 1027
 325	 1028
 325	 1029
 326	 1023
 326	 1024
 326	 1025
 326	 1026
 326	 1027
 326	 1028
 326	 1029
 326	 1030
 327	 1023
 327	 1024
 327	 1025
 327	 1026
 327	 1027
 327	 1028
 327	 1029
 328	 1023
 328	 1024
 328	 1025
 328	 1026
 328	 1027
 329	 1023
 329	 1024
 329	 1025
 329	 1026
 329	 1027
 329	 1028
 330	 1023
 330	 1024
 330	 1025
 330	 1026
 330	 1027
 330	 1028
 331	 1025
 331	 1026
 331	 1027
 331	 1028
 332	 1025
 332	 1026
 332	 1027
 332	 1028
 332	 1029
 333	 1025
 333	 1026
 333	 1027
 333	 1028
 333	 1029
 333	 1030
 334	 1025
 334	 1026
 334	 1027
 334	 1028
 334	 1029
 334	 1030
 335	 1027
 335	 1028
 335	 1029
 335	 1030
 336	 1025
 336	 1026
 336	 1027
 336	 1028
 336	 1029
 336	 1030
 337	 1023
 337	 1024
 337	 1025
 337	 1026
 337	 1027
 337	 1028
 337	 1029
 337	 1030
 338	 1024
 338	 1025
 338	 1026
 338	 1027
 338	 1028
 338	 1029
 338	 1030
 339	 1026
 339	 1027
 339	 1028
 339	 1029
 339	 1030
 339	 1031
 339	 1032
 340	 1027
 340	 1028
 340	 1029
 340	 1030
 340	 1031
 340	 1032
 340	 1033
 341	 1027
 341	 1028
 341	 1029
 341	 1030
 341	 1031
 341	 1032
 341	 1033
 342	 1029
 342	 1030
 342	 1031
 342	 1032
 342	 1033
 343	 1030
 343	 1031
 343	 1032
 343	 1033
 344	 1030
 344	 1031
 344	 1032
 344	 1033
 344	 1034
 345	 1030
 345	 1031
 345	 1032
 345	 1033
 345	 1034
 345	 1035
 346	 1031
 346	 1032
 346	 1033
 346	 1034
 346	 1035
 347	 1031
 347	 1032
 347	 1033
 347	 1034
 347	 1035
 348	 1031
 348	 1032
 348	 1033
 348	 1034
 348	 1035
 349	 1031
 349	 1032
 349	 1033
 349	 1034
 350	 1031
 350	 1032
 350	 1033
 350	 1034
 350	 1035
 350	 1036
 351	 1031
 351	 1032
 351	 1033
 351	 1034
 351	 1035
 351	 1036
 351	 1037
 352	 1032
 352	 1033
 352	 1034
 352	 1035
 352	 1036
 352	 1037
 352	 1038
 353	 1033
 353	 1034
 353	 1035
 353	 1036
 353	 1037
 353	 1038
 353	 1039
 354	 1034
 354	 1035
 354	 1036
 354	 1037
 354	 1038
 354	 1039
 355	 1037
 355	 1038
 355	 1039
 355	 1040
 356	 1037
 356	 1038
 356	 1039
 356	 1040
 356	 1041
 357	 1037
 357	 1038
 357	 1039
 357	 1040
 357	 1041
 357	 1042
 358	 1037
 358	 1038
 358	 1039
 358	 1040
 358	 1041
 358	 1042
 359	 1039
 359	 1040
 359	 1041
 359	 1042
 360	 1039
 360	 1040
 360	 1041
 360	 1042
 360	 1043
 360	 1044
 361	 1039
 361	 1040
 361	 1041
 361	 1042
 361	 1043
 361	 1044
 362	 1040
 362	 1041
 362	 1042
 362	 1043
 362	 1044
 363	 1041
 363	 1042
 363	 1043
 363	 1044
 363	 1045
 363	 1046
 364	 1041
 364	 1042
 364	 1043
 364	 1044
 364	 1045
 364	 1046
 364	 1047
 364	 1048
 365	 1041
 365	 1042
 365	 1043
 365	 1044
 365	 1045
 365	 1046
 365	 1047
 365	 1048
 366	 1042
 366	 1043
 366	 1044
 366	 1045
 366	 1046
 367	 1042
 367	 1043
 367	 1044
 367	 1045
 367	 1046
 368	 1042
 368	 1043
 368	 1044
 368	 1045
 368	 1046
 368	 1047
 368	 1048
 369	 1042
 369	 1043
 369	 1044
 369	 1045
 369	 1046
 369	 1047
 369	 1048
 370	 1043
 370	 1044
 370	 1045
 370	 1046
 370	 1047
 370	 1048
 371	 1045
 371	 1046
 371	 1047
 371	 1048
 372	 1045
 372	 1046
 372	 1047
 372	 1048
 373	 1045
 373	 1046
 373	 1047
 373	 1048
 374	 1045
 374	 1046
 374	 1047
 374	 1048
 374	 1049
 375	 1046
 375	 1047
 375	 1048
 375	 1049
 375	 1050
 376	 1047
 376	 1048
 376	 1049
 376	 1050
 376	 1051
 377	 1048
 377	 1049
 377	 1050
 377	 1051
 378	 1049
 378	 1050
 378	 1051
 378	 1052
 379	 1049
 379	 1050
 379	 1051
 379	 1052
 379	 1053
 380	 1049
 380	 1050
 380	 1051
 380	 1052
 380	 1053
 381	 1050
 381	 1051
 381	 1052
 381	 1053
 381	 1054
 381	 1055
 382	 1049
 382	 1050
 382	 1051
 382	 1052
 382	 1053
 382	 1054
 382	 1055
 382	 1056
 383	 1049
 383	 1050
 383	 1051
 383	 1052
 383	 1053
 383	 1054
 383	 1055
 383	 1056
 383	 1057
 384	 1049
 384	 1050
 384	 1051
 384	 1052
 384	 1053
 384	 1054
 385	 1049
 385	 1050
 385	 1051
 385	 1052
 386	 1049
 386	 1050
 386	 1051
 386	 1052
 387	 1049
 387	 1050
 387	 1051
 387	 1052
 388	 1049
 388	 1050
 388	 1051
 388	 1052
 389	 1049
 389	 1050
 389	 1051
 389	 1052
 389	 1053
 389	 1054
 390	 1049
 390	 1050
 390	 1051
 390	 1052
 390	 1053
 390	 1054
 391	 1050
 391	 1051
 391	 1052
 391	 1053
 391	 1054
 392	 1051
 392	 1052
 392	 1053
 392	 1054
 393	 1051
 393	 1052
 393	 1053
 393	 1054
 393	 1055
 394	 1051
 394	 1052
 394	 1053
 394	 1054
 394	 1055
 395	 1051
 395	 1052
 395	 1053
 395	 1054
 395	 1055
 396	 1051
 396	 1052
 396	 1053
 396	 1054
 396	 1055
 396	 1056
 397	 1051
 397	 1052
 397	 1053
 397	 1054
 397	 1055
 397	 1056
 398	 1051
 398	 1052
 398	 1053
 398	 1054
 398	 1055
 398	 1056
 399	 1054
 399	 1055
 399	 1056
 400	 1054
 400	 1055
 400	 1056
 401	 1054
 401	 1055
 401	 1056
 402	 1053
 402	 1054
 402	 1055
 402	 1056
 403	 1053
 403	 1054
 403	 1055
 403	 1056
 403	 1057
 404	 1053
 404	 1054
 404	 1055
 404	 1056
 404	 1057
 405	 1053
 405	 1054
 405	 1055
 405	 1056
 405	 1057
 405	 1058
 405	 1059
 406	 1055
 406	 1056
 406	 1057
 406	 1058
 406	 1059
 407	 1055
 407	 1056
 407	 1057
 407	 1058
 407	 1059
 408	 1055
 408	 1056
 408	 1057
 408	 1058
 408	 1059
 409	 1055
 409	 1056
 409	 1057
 409	 1058
 410	 1055
 410	 1056
 410	 1057
 411	 1055
 411	 1056
 411	 1057
 412	 1055
 412	 1056
 412	 1057
 413	 1055
 413	 1056
 413	 1057
 414	 1055
 414	 1056
 414	 1057
 415	 1055
 415	 1056
 415	 1057
 416	 1055
 416	 1056
 416	 1057
 417	 1055
 417	 1056
 417	 1057
 417	 1058
 417	 1059
 418	 1055
 418	 1056
 418	 1057
 418	 1058
 418	 1059
 418	 1060
 419	 1055
 419	 1056
 419	 1057
 419	 1058
 419	 1059
 419	 1060
 420	 1057
 420	 1058
 420	 1059
 420	 1060
 421	 1056
 421	 1057
 421	 1058
 421	 1059
 421	 1060
 422	 1056
 422	 1057
 422	 1058
 422	 1059
 422	 1060
 423	 1056
 423	 1057
 423	 1058
 423	 1059
 423	 1060
 423	 1061
 424	 1057
 424	 1058
 424	 1059
 424	 1060
 424	 1061
 424	 1062
 424	 1063
 425	 1058
 425	 1059
 425	 1060
 425	 1061
 425	 1062
 425	 1063
 425	 1064
 426	 1058
 426	 1059
 426	 1060
 426	 1061
 426	 1062
 426	 1063
 427	 1058
 427	 1059
 427	 1060
 427	 1061
 428	 1058
 428	 1059
 428	 1060
 428	 1061
 429	 1057
 429	 1058
 429	 1059
 429	 1060
 429	 1061
 430	 1056
 430	 1057
 430	 1058
 430	 1059
 430	 1060
 430	 1061
 431	 1055
 431	 1056
 431	 1057
 431	 1058
 431	 1059
 431	 1060
 432	 1054
 432	 1055
 432	 1056
 432	 1057
 432	 1058
 432	 1059
 433	 1054
 433	 1055
 433	 1056
 433	 1057
 434	 1053
 434	 1054
 434	 1055
 434	 1056
 434	 1057
 435	 1051
 435	 1052
 435	 1053
 435	 1054
 435	 1055
 435	 1056
 436	 1051
 436	 1052
 436	 1053
 436	 1054
 436	 1055
 436	 1056
 437	 1050
 437	 1051
 437	 1052
 437	 1053
 437	 1054
 437	 1055
 438	 1049
 438	 1050
 438	 1051
 438	 1052
 438	 1053
 438	 1054
 439	 1049
 439	 1050
 439	 1051
 439	 1052
 439	 1053
 440	 1049
 440	 1050
 440	 1051
 440	 1052
 440	 1053
 440	 1054
 441	 1049
 441	 1050
 441	 1051
 441	 1052
 441	 1053
 442	 1048
 442	 1049
 442	 1050
 442	 1051
 442	 1052
 443	 1048
 443	 1049
 443	 1050
 443	 1051
 443	 1052
 443	 1053
 444	 1049
 444	 1050
 444	 1051
 444	 1052
 444	 1053
 445	 1048
 445	 1049
 445	 1050
 445	 1051
 445	 1052
 446	 1047
 446	 1048
 446	 1049
 446	 1050
 446	 1051
 446	 1052
 447	 1047
 447	 1048
 447	 1049
 447	 1050
 447	 1051
 447	 1052
 447	 1053
 448	 1049
 448	 1050
 448	 1051
 448	 1052
 448	 1053
 448	 1054
 449	 1049
 449	 1050
 449	 1051
 449	 1052
 449	 1053
 449	 1054
 450	 1051
 450	 1052
 450	 1053
 450	 1054
 451	 1051
 451	 1052
 451	 1053
 451	 1054
 452	 1051
 452	 1052
 452	 1053
 452	 1054
 453	 1051
 453	 1052
 453	 1053
 453	 1054
 453	 1055
 454	 1052
 454	 1053
 454	 1054
 454	 1055
 454	 1056
 455	 1052
 455	 1053
 455	 1054
 455	 1055
 455	 1056
 456	 1053
 456	 1054
 456	 1055
 456	 1056
 457	 1053
 457	 1054
 457	 1055
 457	 1056
 458	 1051
 458	 1052
 458	 1053
 458	 1054
 458	 1055
 458	 1056
 459	 1051
 459	 1052
 459	 1053
 459	 1054
 459	 1055
 459	 1056
 460	 1051
 460	 1052
 460	 1053
 460	 1054
 460	 1055
 460	 1056
 461	 1050
 461	 1051
 461	 1052
 461	 1053
 461	 1054
 462	 1049
 462	 1050
 462	 1051
 462	 1052
 462	 1053
 462	 1054
 463	 1048
 463	 1049
 463	 1050
 463	 1051
 463	 1052
 463	 1053
 464	 1048
 464	 1049
 464	 1050
 464	 1051
 464	 1052
 465	 1047
 465	 1048
 465	 1049
 465	 1050
 465	 1051
 466	 1046
 466	 1047
 466	 1048
 466	 1049
 466	 1050
 467	 1044
 467	 1045
 467	 1046
 467	 1047
 467	 1048
 467	 1049
 468	 1043
 468	 1044
 468	 1045
 468	 1046
 468	 1047
 468	 1048
 469	 1043
 469	 1044
 469	 1045
 469	 1046
 469	 1047
 470	 1043
 470	 1044
 470	 1045
 470	 1046
 471	 1043
 471	 1044
 471	 1045
 472	 1043
 472	 1044
 472	 1045
 472	 1046
 472	 1047
 473	 1043
 473	 1044
 473	 1045
 473	 1046
 473	 1047
 473	 1048
 474	 1044
 474	 1045
 474	 1046
 474	 1047
 474	 1048
 475	 1045
 475	 1046
 475	 1047
 475	 1048
 475	 1049
 476	 1045
 476	 1046
 476	 1047
 476	 1048
 476	 1049
 476	 1050
 477	 1045
 477	 1046
 477	 1047
 477	 1048
 477	 1049
 477	 1050
 477	 1051
 478	 1047
 478	 1048
 478	 1049
 478	 1050
 478	 1051
 478	 1052
 478	 1053
 479	 1048
 479	 1049
 479	 1050
 479	 1051
 479	 1052
 479	 1053
 479	 1054
 479	 1055
 480	 1049
 480	 1050
 480	 1051
 480	 1052
 480	 1053
 480	 1054
 480	 1055
 480	 1056
 480	 1057
 481	 1051
 481	 1052
 481	 1053
 481	 1054
 481	 1055
 481	 1056
 481	 1057
 481	 1058
 481	 1059
 482	 1053
 482	 1054
 482	 1055
 482	 1056
 482	 1057
 482	 1058
 482	 1059
 482	 1060
 482	 1061
 483	 1055
 483	 1056
 483	 1057
 483	 1058
 483	 1059
 483	 1060
 483	 1061
 483	 1062
 483	 1063
 483	 1064
 483	 1065
 483	 1066
 483	 1067
 483	 1068
 483	 1069
 484	 1057
 484	 1058
 484	 1059
 484	 1060
 484	 1061
 484	 1062
 484	 1063
 484	 1064
 484	 1065
 484	 1066
 484	 1067
 484	 1068
 484	 1069
 484	 1070
 484	 1071
 484	 1072
 484	 1073
 484	 1074
 485	 1047
 485	 1048
 485	 1049
 485	 1050
 485	 1051
 485	 1052
 485	 1053
 485	 1054
 485	 1055
 485	 1056
 485	 1057
 485	 1058
 485	 1059
 485	 1060
 485	 1061
 485	 1062
 485	 1063
 485	 1064
 485	 1065
 485	 1066
 485	 1067
 485	 1068
 485	 1069
 485	 1070
 485	 1071
 485	 1072
 485	 1073
 485	 1074
 486	 1043
 486	 1044
 486	 1045
 486	 1046
 486	 1047
 486	 1048
 486	 1049
 486	 1050
 486	 1051
 486	 1052
 486	 1053
 486	 1054
 486	 1055
 486	 1056
 486	 1057
 486	 1058
 486	 1059
 486	 1060
 486	 1061
 486	 1062
 486	 1063
 486	 1064
 486	 1065
 486	 1066
 486	 1067
 486	 1068
 486	 1069
 486	 1070
 486	 1071
 486	 1072
 486	 1073
 486	 1074
 487	 1043
 487	 1044
 487	 1045
 487	 1046
 487	 1047
 487	 1048
 487	 1049
 487	 1050
 487	 1051
 487	 1052
 487	 1053
 487	 1054
 487	 1055
 487	 1056
 487	 1057
 487	 1058
 487	 1059
 487	 1060
 487	 1061
 487	 1062
 487	 1063
 487	 1064
 487	 1065
 487	 1066
 487	 1067
 487	 1068
 487	 1069
 487	 1070
 487	 1071
 487	 1072
 487	 1073
 487	 1074
 488	 1043
 488	 1044
 488	 1045
 488	 1046
 488	 1047
 488	 1048
 488	 1049
 488	 1050
 488	 1051
 488	 1052
 488	 1053
 488	 1054
 488	 1055
 488	 1056
 488	 1057
 488	 1058
 488	 1059
 488	 1060
 488	 1061
 488	 1062
 488	 1063
 488	 1064
 488	 1065
 488	 1066
 488	 1067
 488	 1068
 488	 1069
 488	 1070
 488	 1071
 488	 1072
 488	 1073
 488	 1074
 489	 1044
 489	 1045
 489	 1046
 489	 1047
 489	 1048
 489	 1049
 489	 1050
 489	 1051
 489	 1052
 489	 1053
 489	 1054
 489	 1055
 489	 1056
 489	 1057
 489	 1058
 489	 1059
 489	 1060
 489	 1061
 489	 1062
 489	 1063
 489	 1064
 489	 1065
 489	 1066
 489	 1067
 489	 1068
 489	 1069
 489	 1070
 489	 1071
 489	 1072
 489	 1073
 489	 1074
 490	 1054
 490	 1055
 490	 1056
 490	 1057
 490	 1058
 490	 1059
 490	 1060
 490	 1061
 490	 1062
 490	 1063
 490	 1064
 490	 1065
 490	 1066
 490	 1067
 490	 1068
 491	 1053
 491	 1054
 491	 1055
 491	 1056
 491	 1057
 491	 1058
 491	 1059
 491	 1060
 491	 1061
 491	 1062
 491	 1063
 492	 1054
 492	 1055
 492	 1056
 492	 1057
 492	 1058
 492	 1059
 492	 1060
 492	 1061
 492	 1062
 492	 1063
 492	 1064
 492	 1065
 493	 1059
 493	 1060
 493	 1061
 493	 1062
 493	 1063
 493	 1064
 493	 1065
 493	 1066
 494	 1061
 494	 1062
 494	 1063
 494	 1064
 494	 1065
 494	 1066
 494	 1067
 494	 1068
 495	 1063
 495	 1064
 495	 1065
 495	 1066
 495	 1067
 495	 1068
 495	 1069
 496	 1063
 496	 1064
 496	 1065
 496	 1066
 496	 1067
 496	 1068
 496	 1069
 496	 1070
 496	 1071
 497	 1063
 497	 1064
 497	 1065
 497	 1066
 497	 1067
 497	 1068
 497	 1069
 497	 1070
 497	 1071
 497	 1072
 498	 1066
 498	 1067
 498	 1068
 498	 1069
 498	 1070
 498	 1071
 498	 1072
 498	 1073
 499	 1069
 499	 1070
 499	 1071
 499	 1072
 499	 1073
 499	 1074
 500	 1070
 500	 1071
 500	 1072
 500	 1073
 500	 1074
 500	 1075
 501	 1071
 501	 1072
 501	 1073
 501	 1074
 501	 1075
 501	 1076
 502	 1072
 502	 1073
 502	 1074
 502	 1075
 502	 1076
 502	 1077
 502	 1078
 502	 1079
 503	 1073
 503	 1074
 503	 1075
 503	 1076
 503	 1077
 503	 1078
 503	 1079
 503	 1080
 504	 1074
 504	 1075
 504	 1076
 504	 1077
 504	 1078
 504	 1079
 504	 1080
 504	 1081
 505	 1076
 505	 1077
 505	 1078
 505	 1079
 505	 1080
 505	 1081
 505	 1082
 505	 1083
 505	 1084
 505	 1085
 506	 1076
 506	 1077
 506	 1078
 506	 1079
 506	 1080
 506	 1081
 506	 1082
 506	 1083
 506	 1084
 506	 1085
 506	 1086
 506	 1087
 506	 1088
 506	 1089
 507	 1076
 507	 1077
 507	 1078
 507	 1079
 507	 1080
 507	 1081
 507	 1082
 507	 1083
 507	 1084
 507	 1085
 507	 1086
 507	 1087
 507	 1088
 507	 1089
 507	 1090
 507	 1091
 508	 1081
 508	 1082
 508	 1083
 508	 1084
 508	 1085
 508	 1086
 508	 1087
 508	 1088
 508	 1089
 508	 1090
 508	 1091
 508	 1092
 509	 1086
 509	 1087
 509	 1088
 509	 1089
 509	 1090
 509	 1091
 509	 1092
 509	 1093
 510	 1089
 510	 1090
 510	 1091
 510	 1092
 510	 1093
 511	 1090
 511	 1091
 511	 1092
 511	 1093
 511	 1094
 512	 1090
 512	 1091
 512	 1092
 512	 1093
 512	 1094
 512	 1095
 513	 1090
 513	 1091
 513	 1092
 513	 1093
 513	 1094
 513	 1095
 513	 1096
 514	 1092
 514	 1093
 514	 1094
 514	 1095
 514	 1096
 514	 1097
 515	 1092
 515	 1093
 515	 1094
 515	 1095
 515	 1096
 515	 1097
 516	 1092
 516	 1093
 516	 1094
 516	 1095
 516	 1096
 516	 1097
 517	 1093
 517	 1094
 517	 1095
 517	 1096
 517	 1097
 517	 1098
 517	 1099
 518	 1094
 518	 1095
 518	 1096
 518	 1097
 518	 1098
 518	 1099
 518	 1100
 519	 1094
 519	 1095
 519	 1096
 519	 1097
 519	 1098
 519	 1099
 519	 1100
 519	 1101
 519	 1102
 519	 1103
 519	 1104
 519	 1105
 519	 1106
 520	 1097
 520	 1098
 520	 1099
 520	 1100
 520	 1101
 520	 1102
 520	 1103
 520	 1104
 520	 1105
 520	 1106
 520	 1107
 520	 1108
 521	 1098
 521	 1099
 521	 1100
 521	 1101
 521	 1102
 521	 1103
 521	 1104
 521	 1105
 521	 1106
 521	 1107
 521	 1108
 521	 1109
 521	 1110
 522	 1101
 522	 1102
 522	 1103
 522	 1104
 522	 1105
 522	 1106
 522	 1107
 522	 1108
 522	 1109
 522	 1110
 523	 1106
 523	 1107
 523	 1108
 523	 1109
 523	 1110
 524	 1104
 524	 1105
 524	 1106
 524	 1107
 524	 1108
 524	 1109
 524	 1110
 525	 1104
 525	 1105
 525	 1106
 525	 1107
 525	 1108
 525	 1109
 525	 1110
 525	 1111
 526	 1104
 526	 1105
 526	 1106
 526	 1107
 526	 1108
 526	 1109
 526	 1110
 526	 1111
 527	 1102
 527	 1103
 527	 1104
 527	 1105
 527	 1106
 527	 1107
 527	 1108
 527	 1109
 527	 1110
 528	 1101
 528	 1102
 528	 1103
 528	 1104
 528	 1105
 528	 1106
 528	 1107
 528	 1108
 528	 1109
 529	 1103
 529	 1104
 529	 1105
 529	 1106
 529	 1107
 529	 1108
 529	 1109
 529	 1110
 530	 1105
 530	 1106
 530	 1107
 530	 1108
 530	 1109
 530	 1110
 530	 1111
 531	 1104
 531	 1105
 531	 1106
 531	 1107
 531	 1108
 531	 1109
 531	 1110
 531	 1111
 531	 1112
 532	 1105
 532	 1106
 532	 1107
 532	 1108
 532	 1109
 532	 1110
 532	 1111
 532	 1112
 532	 1113
 533	 1109
 533	 1110
 533	 1111
 533	 1112
 533	 1113
 533	 1114
 534	 1110
 534	 1111
 534	 1112
 534	 1113
 534	 1114
 534	 1115
 535	 1111
 535	 1112
 535	 1113
 535	 1114
 535	 1115
 536	 1107
 536	 1108
 536	 1109
 536	 1110
 536	 1111
 536	 1112
 536	 1113
 536	 1114
 536	 1115
 537	 1107
 537	 1108
 537	 1109
 537	 1110
 537	 1111
 537	 1112
 537	 1113
 537	 1114
 537	 1115
 538	 1104
 538	 1105
 538	 1106
 538	 1107
 538	 1108
 538	 1109
 538	 1110
 538	 1111
 538	 1112
 538	 1113
 538	 1114
 539	 1098
 539	 1099
 539	 1100
 539	 1101
 539	 1102
 539	 1103
 539	 1104
 539	 1105
 539	 1106
 539	 1107
 539	 1108
 539	 1109
 539	 1110
 539	 1111
 540	 1092
 540	 1093
 540	 1094
 540	 1095
 540	 1096
 540	 1097
 540	 1098
 540	 1099
 540	 1100
 540	 1101
 540	 1102
 540	 1103
 540	 1104
 540	 1105
 540	 1106
 540	 1107
 540	 1108
 540	 1109
 541	 1089
 541	 1090
 541	 1091
 541	 1092
 541	 1093
 541	 1094
 541	 1095
 541	 1096
 541	 1097
 541	 1098
 541	 1099
 541	 1100
 541	 1101
 541	 1102
 541	 1103
 541	 1104
 541	 1105
 541	 1106
 541	 1107
 542	 1087
 542	 1088
 542	 1089
 542	 1090
 542	 1091
 542	 1092
 542	 1093
 542	 1094
 542	 1095
 542	 1096
 542	 1097
 542	 1098
 542	 1099
 542	 1100
 542	 1101
 542	 1102
 542	 1103
 543	 1087
 543	 1088
 543	 1089
 543	 1090
 543	 1091
 543	 1092
 543	 1093
 543	 1094
 543	 1095
 543	 1096
 544	 1087
 544	 1088
 544	 1089
 544	 1090
 544	 1091
 544	 1092
 545	 1083
 545	 1084
 545	 1085
 545	 1086
 545	 1087
 545	 1088
 545	 1089
 545	 1090
 546	 1080
 546	 1081
 546	 1082
 546	 1083
 546	 1084
 546	 1085
 546	 1086
 546	 1087
 546	 1088
 546	 1089
 546	 1090
 547	 1080
 547	 1081
 547	 1082
 547	 1083
 547	 1084
 547	 1085
 547	 1086
 547	 1087
 547	 1088
 547	 1089
 548	 1077
 548	 1078
 548	 1079
 548	 1080
 548	 1081
 548	 1082
 548	 1083
 548	 1084
 548	 1085
 548	 1086
 549	 1074
 549	 1075
 549	 1076
 549	 1077
 549	 1078
 549	 1079
 549	 1080
 549	 1081
 549	 1082
 549	 1083
 550	 1071
 550	 1072
 550	 1073
 550	 1074
 550	 1075
 550	 1076
 550	 1077
 550	 1078
 550	 1079
 550	 1080
 550	 1081
 550	 1082
 551	 1066
 551	 1067
 551	 1068
 551	 1069
 551	 1070
 551	 1071
 551	 1072
 551	 1073
 551	 1074
 551	 1075
 551	 1076
 551	 1077
 551	 1078
 551	 1079
 551	 1080
 552	 1066
 552	 1067
 552	 1068
 552	 1069
 552	 1070
 552	 1071
 552	 1072
 552	 1073
 552	 1074
 552	 1075
 552	 1076
 553	 1065
 553	 1066
 553	 1067
 553	 1068
 553	 1069
 553	 1070
 553	 1071
 553	 1072
 553	 1073
 553	 1074
 554	 1065
 554	 1066
 554	 1067
 554	 1068
 554	 1069
 554	 1070
 555	 1064
 555	 1065
 555	 1066
 555	 1067
 555	 1068
 556	 1064
 556	 1065
 556	 1066
 556	 1067
 556	 1068
 556	 1069
 557	 1065
 557	 1066
 557	 1067
 557	 1068
 557	 1069
 557	 1070
 557	 1071
 557	 1072
 558	 1066
 558	 1067
 558	 1068
 558	 1069
 558	 1070
 558	 1071
 558	 1072
 558	 1073
 558	 1074
 558	 1075
 559	 1067
 559	 1068
 559	 1069
 559	 1070
 559	 1071
 559	 1072
 559	 1073
 559	 1074
 559	 1075
 559	 1076
 559	 1077
 560	 1069
 560	 1070
 560	 1071
 560	 1072
 560	 1073
 560	 1074
 560	 1075
 560	 1076
 560	 1077
 560	 1078
 560	 1079
 561	 1073
 561	 1074
 561	 1075
 561	 1076
 561	 1077
 561	 1078
 561	 1079
 561	 1080
 561	 1081
 562	 1075
 562	 1076
 562	 1077
 562	 1078
 562	 1079
 562	 1080
 562	 1081
 562	 1082
 563	 1077
 563	 1078
 563	 1079
 563	 1080
 563	 1081
 563	 1082
 563	 1083
 564	 1075
 564	 1076
 564	 1077
 564	 1078
 564	 1079
 564	 1080
 564	 1081
 564	 1082
 564	 1083
 564	 1084
 565	 1075
 565	 1076
 565	 1077
 565	 1078
 565	 1079
 565	 1080
 565	 1081
 565	 1082
 566	 1074
 566	 1075
 566	 1076
 566	 1077
 566	 1078
 566	 1079
 566	 1080
 567	 1067
 567	 1068
 567	 1069
 567	 1070
 567	 1071
 567	 1072
 567	 1073
 567	 1074
 567	 1075
 567	 1076
 567	 1077
 567	 1078
 567	 1079
 567	 1080
 568	 1063
 568	 1064
 568	 1065
 568	 1066
 568	 1067
 568	 1068
 568	 1069
 568	 1070
 568	 1071
 568	 1072
 568	 1073
 568	 1074
 568	 1075
 568	 1076
 568	 1077
 568	 1078
 568	 1079
 568	 1080
 569	 1061
 569	 1062
 569	 1063
 569	 1064
 569	 1065
 569	 1066
 569	 1067
 569	 1068
 569	 1069
 569	 1070
 569	 1071
 569	 1072
 569	 1073
 569	 1074
 569	 1075
 569	 1076
 569	 1077
 570	 1060
 570	 1061
 570	 1062
 570	 1063
 570	 1064
 570	 1065
 570	 1066
 570	 1067
 570	 1068
 570	 1069
 570	 1070
 570	 1071
 570	 1072
 571	 1056
 571	 1057
 571	 1058
 571	 1059
 571	 1060
 571	 1061
 571	 1062
 571	 1063
 571	 1064
 571	 1065
 571	 1066
 572	 1052
 572	 1053
 572	 1054
 572	 1055
 572	 1056
 572	 1057
 572	 1058
 572	 1059
 572	 1060
 572	 1061
 572	 1062
 572	 1063
 573	 1053
 573	 1054
 573	 1055
 573	 1056
 573	 1057
 573	 1058
 573	 1059
 573	 1060
 573	 1061
 573	 1062
 573	 1063
 574	 1050
 574	 1051
 574	 1052
 574	 1053
 574	 1054
 574	 1055
 574	 1056
 574	 1057
 574	 1058
 574	 1059
 575	 1049
 575	 1050
 575	 1051
 575	 1052
 575	 1053
 575	 1054
 575	 1055
 575	 1056
 575	 1057
 575	 1058
 575	 1059
 576	 1047
 576	 1048
 576	 1049
 576	 1050
 576	 1051
 576	 1052
 576	 1053
 576	 1054
 576	 1055
 576	 1056
 577	 1046
 577	 1047
 577	 1048
 577	 1049
 577	 1050
 577	 1051
 577	 1052
 577	 1053
 578	 1044
 578	 1045
 578	 1046
 578	 1047
 578	 1048
 578	 1049
 578	 1050
 578	 1051
 579	 1043
 579	 1044
 579	 1045
 579	 1046
 579	 1047
 579	 1048
 579	 1049
 580	 1042
 580	 1043
 580	 1044
 580	 1045
 580	 1046
 580	 1047
 580	 1048
 581	 1041
 581	 1042
 581	 1043
 581	 1044
 581	 1045
 581	 1046
 582	 1041
 582	 1042
 582	 1043
 582	 1044
 582	 1045
 582	 1046
 583	 1042
 583	 1043
 583	 1044
 583	 1045
 583	 1046
 583	 1047
 584	 1043
 584	 1044
 584	 1045
 584	 1046
 584	 1047
 585	 1043
 585	 1044
 585	 1045
 585	 1046
 585	 1047
 586	 1042
 586	 1043
 586	 1044
 586	 1045
 586	 1046
 586	 1047
 587	 1040
 587	 1041
 587	 1042
 587	 1043
 587	 1044
 587	 1045
 588	 1040
 588	 1041
 588	 1042
 588	 1043
 588	 1044
 588	 1045
 589	 1040
 589	 1041
 589	 1042
 589	 1043
 589	 1044
 589	 1045
 590	 1039
 590	 1040
 590	 1041
 590	 1042
 590	 1043
 590	 1044
 591	 1038
 591	 1039
 591	 1040
 591	 1041
 591	 1042
 591	 1043
 591	 1044
 592	 1038
 592	 1039
 592	 1040
 592	 1041
 592	 1042
 592	 1043
 592	 1044
 593	 1037
 593	 1038
 593	 1039
 593	 1040
 593	 1041
 593	 1042
 594	 1036
 594	 1037
 594	 1038
 594	 1039
 594	 1040
 594	 1041
 595	 1036
 595	 1037
 595	 1038
 595	 1039
 595	 1040
 595	 1041
 596	 1037
 596	 1038
 596	 1039
 596	 1040
 597	 1037
 597	 1038
 597	 1039
 597	 1040
 598	 1036
 598	 1037
 598	 1038
 598	 1039
 598	 1040
 599	 1036
 599	 1037
 599	 1038
 599	 1039
 599	 1040
 600	 1035
 600	 1036
 600	 1037
 600	 1038
 600	 1039
 601	 1035
 601	 1036
 601	 1037
 601	 1038
 602	 1034
 602	 1035
 602	 1036
 602	 1037
 602	 1038
 603	 1034
 603	 1035
 603	 1036
 603	 1037
 603	 1038
 604	 1033
 604	 1034
 604	 1035
 604	 1036
 604	 1037
 605	 1032
 605	 1033
 605	 1034
 605	 1035
 605	 1036
 605	 1037
 606	 1033
 606	 1034
 606	 1035
 606	 1036
 606	 1037
 607	 1033
 607	 1034
 607	 1035
 607	 1036
 607	 1037
 608	 1033
 608	 1034
 608	 1035
 608	 1036
 609	 1032
 609	 1033
 609	 1034
 609	 1035
 609	 1036
 610	 1031
 610	 1032
 610	 1033
 610	 1034
 610	 1035
 610	 1036
 611	 1031
 611	 1032
 611	 1033
 611	 1034
 611	 1035
 612	 1030
 612	 1031
 612	 1032
 612	 1033
 612	 1034
 613	 1030
 613	 1031
 613	 1032
 613	 1033
 613	 1034
 614	 1030
 614	 1031
 614	 1032
 614	 1033
 615	 1028
 615	 1029
 615	 1030
 615	 1031
 615	 1032
 615	 1033
 616	 1027
 616	 1028
 616	 1029
 616	 1030
 616	 1031
 616	 1032
 616	 1033
 617	 1027
 617	 1028
 617	 1029
 617	 1030
 617	 1031
 617	 1032
 617	 1033
 618	 1027
 618	 1028
 618	 1029
 618	 1030
 618	 1031
 619	 1027
 619	 1028
 619	 1029
 619	 1030
 620	 1027
 620	 1028
 620	 1029
 620	 1030
 620	 1031
 621	 1026
 621	 1027
 621	 1028
 621	 1029
 621	 1030
 621	 1031
 622	 1026
 622	 1027
 622	 1028
 622	 1029
 622	 1030
 622	 1031
 623	 1026
 623	 1027
 623	 1028
 623	 1029
 624	 1026
 624	 1027
 624	 1028
 624	 1029
 625	 1026
 625	 1027
 625	 1028
 625	 1029
 626	 1025
 626	 1026
 626	 1027
 626	 1028
 626	 1029
 627	 1024
 627	 1025
 627	 1026
 627	 1027
 627	 1028
 627	 1029
 628	 1023
 628	 1024
 628	 1025
 628	 1026
 628	 1027
 628	 1028
 629	 1023
 629	 1024
 629	 1025
 629	 1026
 629	 1027
 630	 1023
 630	 1024
 630	 1025
 630	 1026
 630	 1027
 631	 1023
 631	 1024
 631	 1025
 631	 1026
 631	 1027
 632	 1023
 632	 1024
 632	 1025
 632	 1026
 632	 1027
 633	 1023
 633	 1024
 633	 1025
 633	 1026
 634	 1023
 634	 1024
 634	 1025
 635	 1023
 635	 1024
 635	 1025
 636	 1022
 636	 1023
 636	 1024
 636	 1025
 637	 1021
 637	 1022
 637	 1023
 637	 1024
 637	 1025
 638	 1021
 638	 1022
 638	 1023
 638	 1024
 638	 1025
 639	 1021
 639	 1022
 639	 1023
 639	 1024
 640	 1021
 640	 1022
 640	 1023
 640	 1024
 641	 1021
 641	 1022
 641	 1023
 641	 1024
 641	 1025
 642	 1021
 642	 1022
 642	 1023
 642	 1024
 642	 1025
 643	 1022
 643	 1023
 643	 1024
 643	 1025
 644	 1022
 644	 1023
 644	 1024
 644	 1025
 644	 1026
 645	 1022
 645	 1023
 645	 1024
 645	 1025
 645	 1026
 646	 1023
 646	 1024
 646	 1025
 646	 1026
 647	 1023
 647	 1024
 647	 1025
 647	 1026
 648	 1023
 648	 1024
 648	 1025
 648	 1026
 649	 1023
 649	 1024
 649	 1025
 649	 1026
 650	 1023
 650	 1024
 650	 1025
 650	 1026
 651	 1023
 651	 1024
 651	 1025
 651	 1026
 651	 1027
 651	 1028
 652	 1023
 652	 1024
 652	 1025
 652	 1026
 652	 1027
 652	 1028
 652	 1029
 652	 1030
 653	 1024
 653	 1025
 653	 1026
 653	 1027
 653	 1028
 653	 1029
 653	 1030
 654	 1026
 654	 1027
 654	 1028
 654	 1029
 654	 1030
 655	 1026
 655	 1027
 655	 1028
 655	 1029
 655	 1030
 656	 1025
 656	 1026
 656	 1027
 656	 1028
 656	 1029
 656	 1030
 657	 1026
 657	 1027
 657	 1028
 657	 1029
 657	 1030
 658	 1027
 658	 1028
 658	 1029
 658	 1030
 659	 1027
 659	 1028
 659	 1029
 659	 1030
 660	 1027
 660	 1028
 660	 1029
 660	 1030
 660	 1031
 661	 1028
 661	 1029
 661	 1030
 661	 1031
 661	 1032
 662	 1029
 662	 1030
 662	 1031
 662	 1032
 662	 1033
 663	 1029
 663	 1030
 663	 1031
 663	 1032
 663	 1033
 663	 1034
 664	 1030
 664	 1031
 664	 1032
 664	 1033
 664	 1034
 664	 1035
 665	 1031
 665	 1032
 665	 1033
 665	 1034
 665	 1035
 665	 1036
 666	 1031
 666	 1032
 666	 1033
 666	 1034
 666	 1035
 666	 1036
 666	 1037
 667	 1031
 667	 1032
 667	 1033
 667	 1034
 667	 1035
 667	 1036
 667	 1037
 668	 1031
 668	 1032
 668	 1033
 668	 1034
 668	 1035
 668	 1036
 668	 1037
 668	 1038
 669	 1032
 669	 1033
 669	 1034
 669	 1035
 669	 1036
 669	 1037
 669	 1038
 669	 1039
 670	 1035
 670	 1036
 670	 1037
 670	 1038
 670	 1039
 670	 1040
 671	 1036
 671	 1037
 671	 1038
 671	 1039
 671	 1040
 671	 1041
 672	 1037
 672	 1038
 672	 1039
 672	 1040
 672	 1041
 672	 1042
 672	 1043
 673	 1037
 673	 1038
 673	 1039
 673	 1040
 673	 1041
 673	 1042
 673	 1043
 674	 1037
 674	 1038
 674	 1039
 674	 1040
 674	 1041
 674	 1042
 675	 1037
 675	 1038
 675	 1039
 675	 1040
 675	 1041
 675	 1042
 676	 1037
 676	 1038
 676	 1039
 676	 1040
 676	 1041
 676	 1042
 676	 1043
 676	 1044
 677	 1038
 677	 1039
 677	 1040
 677	 1041
 677	 1042
 677	 1043
 677	 1044
 678	 1040
 678	 1041
 678	 1042
 678	 1043
 678	 1044
 678	 1045
 678	 1046
 679	 1041
 679	 1042
 679	 1043
 679	 1044
 679	 1045
 679	 1046
 679	 1047
 679	 1048
 680	 1041
 680	 1042
 680	 1043
 680	 1044
 680	 1045
 680	 1046
 680	 1047
 680	 1048
 681	 1042
 681	 1043
 681	 1044
 681	 1045
 681	 1046
 682	 1042
 682	 1043
 682	 1044
 682	 1045
 682	 1046
 683	 1042
 683	 1043
 683	 1044
 683	 1045
 683	 1046
 683	 1047
 683	 1048
 684	 1042
 684	 1043
 684	 1044
 684	 1045
 684	 1046
 684	 1047
 684	 1048
 685	 1042
 685	 1043
 685	 1044
 685	 1045
 685	 1046
 685	 1047
 685	 1048
 686	 1045
 686	 1046
 686	 1047
 686	 1048
 687	 1045
 687	 1046
 687	 1047
 687	 1048
 688	 1045
 688	 1046
 688	 1047
 688	 1048
 689	 1045
 689	 1046
 689	 1047
 689	 1048
 689	 1049
 690	 1045
 690	 1046
 690	 1047
 690	 1048
 690	 1049
 690	 1050
 691	 1045
 691	 1046
 691	 1047
 691	 1048
 691	 1049
 691	 1050
 692	 1046
 692	 1047
 692	 1048
 692	 1049
 692	 1050
 693	 1047
 693	 1048
 693	 1049
 693	 1050
 693	 1051
 694	 1047
 694	 1048
 694	 1049
 694	 1050
 694	 1051
 695	 1047
 695	 1048
 695	 1049
 695	 1050
 695	 1051
 696	 1048
 696	 1049
 696	 1050
 696	 1051
 696	 1052
 696	 1053
 697	 1049
 697	 1050
 697	 1051
 697	 1052
 697	 1053
 697	 1054
 697	 1055
 698	 1049
 698	 1050
 698	 1051
 698	 1052
 698	 1053
 698	 1054
 698	 1055
 699	 1049
 699	 1050
 699	 1051
 699	 1052
 699	 1053
 700	 1049
 700	 1050
 700	 1051
 700	 1052
 700	 1053
 701	 1049
 701	 1050
 701	 1051
 701	 1052
 701	 1053
 701	 1054
 702	 1049
 702	 1050
 702	 1051
 702	 1052
 702	 1053
 702	 1054
 703	 1051
 703	 1052
 703	 1053
 703	 1054
 704	 1050
 704	 1051
 704	 1052
 704	 1053
 704	 1054
 705	 1049
 705	 1050
 705	 1051
 705	 1052
 705	 1053
 705	 1054
 706	 1049
 706	 1050
 706	 1051
 706	 1052
 706	 1053
 706	 1054
 707	 1049
 707	 1050
 707	 1051
 707	 1052
 707	 1053
 708	 1049
 708	 1050
 708	 1051
 708	 1052
 708	 1053
 708	 1054
 708	 1055
 709	 1049
 709	 1050
 709	 1051
 709	 1052
 709	 1053
 709	 1054
 709	 1055
 710	 1051
 710	 1052
 710	 1053
 710	 1054
 710	 1055
 711	 1051
 711	 1052
 711	 1053
 711	 1054
 711	 1055
 712	 1051
 712	 1052
 712	 1053
 712	 1054
 712	 1055
 713	 1051
 713	 1052
 713	 1053
 713	 1054
 713	 1055
 714	 1052
 714	 1053
 714	 1054
 714	 1055
 715	 1052
 715	 1053
 715	 1054
 715	 1055
 716	 1052
 716	 1053
 716	 1054
 716	 1055
 717	 1051
 717	 1052
 717	 1053
 717	 1054
 717	 1055
 718	 1051
 718	 1052
 718	 1053
 718	 1054
 718	 1055
 719	 1051
 719	 1052
 719	 1053
 719	 1054
 719	 1055
 719	 1056
 720	 1051
 720	 1052
 720	 1053
 720	 1054
 720	 1055
 720	 1056
 720	 1057
 721	 1053
 721	 1054
 721	 1055
 721	 1056
 721	 1057
 722	 1053
 722	 1054
 722	 1055
 722	 1056
 722	 1057
 723	 1055
 723	 1056
 723	 1057
 724	 1055
 724	 1056
 724	 1057
 725	 1055
 725	 1056
 725	 1057
 726	 1055
 726	 1056
 726	 1057
 727	 1055
 727	 1056
 727	 1057
 728	 1055
 728	 1056
 728	 1057
 729	 1055
 729	 1056
 729	 1057
 730	 1055
 730	 1056
 730	 1057
 731	 1055
 731	 1056
 731	 1057
 732	 1055
 732	 1056
 732	 1057
 733	 1055
 733	 1056
 733	 1057
 734	 1055
 734	 1056
 734	 1057
 734	 1058
 734	 1059
 735	 1055
 735	 1056
 735	 1057
 735	 1058
 735	 1059
 736	 1055
 736	 1056
 736	 1057
 736	 1058
 736	 1059
 737	 1056
 737	 1057
 737	 1058
 737	 1059
 738	 1056
 738	 1057
 738	 1058
 738	 1059
 738	 1060
 738	 1061
 739	 1056
 739	 1057
 739	 1058
 739	 1059
 739	 1060
 739	 1061
 740	 1057
 740	 1058
 740	 1059
 740	 1060
 740	 1061
 741	 1058
 741	 1059
 741	 1060
 741	 1061
 742	 1058
 742	 1059
 742	 1060
 742	 1061
 743	 1058
 743	 1059
 743	 1060
 743	 1061
 744	 1058
 744	 1059
 744	 1060
 744	 1061
 745	 1057
 745	 1058
 745	 1059
 745	 1060
 745	 1061
 746	 1056
 746	 1057
 746	 1058
 746	 1059
 746	 1060
 746	 1061
 747	 1055
 747	 1056
 747	 1057
 747	 1058
 747	 1059
 747	 1060
 748	 1054
 748	 1055
 748	 1056
 748	 1057
 748	 1058
 748	 1059
 749	 1053
 749	 1054
 749	 1055
 749	 1056
 749	 1057
 749	 1058
 750	 1053
 750	 1054
 750	 1055
 750	 1056
 750	 1057
 751	 1053
 751	 1054
 751	 1055
 751	 1056
 752	 1053
 752	 1054
 752	 1055
 752	 1056
 753	 1053
 753	 1054
 753	 1055
 753	 1056
 754	 1053
 754	 1054
 754	 1055
 754	 1056
 754	 1057
 755	 1053
 755	 1054
 755	 1055
 755	 1056
 755	 1057
 756	 1054
 756	 1055
 756	 1056
 756	 1057
 757	 1055
 757	 1056
 757	 1057
 758	 1055
 758	 1056
 758	 1057
 759	 1055
 759	 1056
 759	 1057
 760	 1053
 760	 1054
 760	 1055
 760	 1056
 760	 1057
 761	 1053
 761	 1054
 761	 1055
 761	 1056
 761	 1057
 762	 1052
 762	 1053
 762	 1054
 762	 1055
 762	 1056
 762	 1057
 763	 1051
 763	 1052
 763	 1053
 763	 1054
 763	 1055
 763	 1056
 764	 1049
 764	 1050
 764	 1051
 764	 1052
 764	 1053
 764	 1054
 764	 1055
 764	 1056
 765	 1049
 765	 1050
 765	 1051
 765	 1052
 765	 1053
 765	 1054
 765	 1055
 766	 1049
 766	 1050
 766	 1051
 766	 1052
 766	 1053
 766	 1054
 766	 1055
 767	 1049
 767	 1050
 767	 1051
 767	 1052
 767	 1053
 767	 1054
 767	 1055
 767	 1056
 768	 1051
 768	 1052
 768	 1053
 768	 1054
 768	 1055
 768	 1056
 768	 1057
 769	 1053
 769	 1054
 769	 1055
 769	 1056
 769	 1057
 769	 1058
 769	 1059
 770	 1053
 770	 1054
 770	 1055
 770	 1056
 770	 1057
 770	 1058
 770	 1059
 770	 1060
 770	 1061
 771	 1053
 771	 1054
 771	 1055
 771	 1056
 771	 1057
 771	 1058
 771	 1059
 771	 1060
 771	 1061
 771	 1062
 771	 1063
 772	 1057
 772	 1058
 772	 1059
 772	 1060
 772	 1061
 772	 1062
 772	 1063
 772	 1064
 772	 1065
 773	 1059
 773	 1060
 773	 1061
 773	 1062
 773	 1063
 773	 1064
 773	 1065
 773	 1066
 774	 1061
 774	 1062
 774	 1063
 774	 1064
 774	 1065
 774	 1066
 774	 1067
 774	 1068
 775	 1063
 775	 1064
 775	 1065
 775	 1066
 775	 1067
 775	 1068
 775	 1069
 775	 1070
 775	 1071
 775	 1072
 776	 1063
 776	 1064
 776	 1065
 776	 1066
 776	 1067
 776	 1068
 776	 1069
 776	 1070
 776	 1071
 776	 1072
 776	 1073
 776	 1074
 776	 1075
 777	 1065
 777	 1066
 777	 1067
 777	 1068
 777	 1069
 777	 1070
 777	 1071
 777	 1072
 777	 1073
 777	 1074
 777	 1075
 778	 1069
 778	 1070
 778	 1071
 778	 1072
 778	 1073
 778	 1074
 778	 1075
 779	 1070
 779	 1071
 779	 1072
 779	 1073
 779	 1074
 779	 1075
 780	 1070
 780	 1071
 780	 1072
 780	 1073
 780	 1074
 780	 1075
 780	 1076
 780	 1077
 780	 1078
 780	 1079
 781	 1070
 781	 1071
 781	 1072
 781	 1073
 781	 1074
 781	 1075
 781	 1076
 781	 1077
 781	 1078
 781	 1079
 781	 1080
 781	 1081
 781	 1082
 781	 1083
 782	 1072
 782	 1073
 782	 1074
 782	 1075
 782	 1076
 782	 1077
 782	 1078
 782	 1079
 782	 1080
 782	 1081
 782	 1082
 782	 1083
 782	 1084
 782	 1085
 782	 1086
 782	 1087
 783	 1076
 783	 1077
 783	 1078
 783	 1079
 783	 1080
 783	 1081
 783	 1082
 783	 1083
 783	 1084
 783	 1085
 783	 1086
 783	 1087
 783	 1088
 783	 1089
 783	 1090
 784	 1080
 784	 1081
 784	 1082
 784	 1083
 784	 1084
 784	 1085
 784	 1086
 784	 1087
 784	 1088
 784	 1089
 784	 1090
 784	 1091
 784	 1092
 785	 1084
 785	 1085
 785	 1086
 785	 1087
 785	 1088
 785	 1089
 785	 1090
 785	 1091
 785	 1092
 786	 1088
 786	 1089
 786	 1090
 786	 1091
 786	 1092
 786	 1093
 786	 1094
 787	 1089
 787	 1090
 787	 1091
 787	 1092
 787	 1093
 787	 1094
 787	 1095
 787	 1096
 787	 1097
 787	 1098
 788	 1090
 788	 1091
 788	 1092
 788	 1093
 788	 1094
 788	 1095
 788	 1096
 788	 1097
 788	 1098
 788	 1099
 788	 1100
 788	 1101
 788	 1102
 788	 1103
 788	 1104
 789	 1092
 789	 1093
 789	 1094
 789	 1095
 789	 1096
 789	 1097
 789	 1098
 789	 1099
 789	 1100
 789	 1101
 789	 1102
 789	 1103
 789	 1104
 789	 1105
 789	 1106
 789	 1107
 789	 1108
 789	 1109
 790	 1095
 790	 1096
 790	 1097
 790	 1098
 790	 1099
 790	 1100
 790	 1101
 790	 1102
 790	 1103
 790	 1104
 790	 1105
 790	 1106
 790	 1107
 790	 1108
 790	 1109
 790	 1110
 790	 1111
 791	 1099
 791	 1100
 791	 1101
 791	 1102
 791	 1103
 791	 1104
 791	 1105
 791	 1106
 791	 1107
 791	 1108
 791	 1109
 791	 1110
 791	 1111
 791	 1112
 791	 1113
 791	 1114
 791	 1115
 792	 1105
 792	 1106
 792	 1107
 792	 1108
 792	 1109
 792	 1110
 792	 1111
 792	 1112
 792	 1113
 792	 1114
 792	 1115
 792	 1116
 792	 1117
 792	 1118
 792	 1119
 792	 1120
 792	 1121
 792	 1122
 792	 1123
 793	 1109
 793	 1110
 793	 1111
 793	 1112
 793	 1113
 793	 1114
 793	 1115
 793	 1116
 793	 1117
 793	 1118
 793	 1119
 793	 1120
 793	 1121
 793	 1122
 793	 1123
 793	 1124
 793	 1125
 793	 1126
 793	 1127
 793	 1128
 794	 1111
 794	 1112
 794	 1113
 794	 1114
 794	 1115
 794	 1116
 794	 1117
 794	 1118
 794	 1119
 794	 1120
 794	 1121
 794	 1122
 794	 1123
 794	 1124
 794	 1125
 794	 1126
 794	 1127
 794	 1128
 794	 1129
 794	 1130
 794	 1131
 794	 1132
 794	 1133
 794	 1134
 795	 1117
 795	 1118
 795	 1119
 795	 1120
 795	 1121
 795	 1122
 795	 1123
 795	 1124
 795	 1125
 795	 1126
 795	 1127
 795	 1128
 795	 1129
 795	 1130
 795	 1131
 795	 1132
 795	 1133
 795	 1134
 795	 1135
 795	 1136
 795	 1137
 795	 1138
 795	 1139
 796	 1125
 796	 1126
 796	 1127
 796	 1128
 796	 1129
 796	 1130
 796	 1131
 796	 1132
 796	 1133
 796	 1134
 796	 1135
 796	 1136
 796	 1137
 796	 1138
 796	 1139
 796	 1140
 796	 1141
 796	 1142
 796	 1143
 796	 1144
 796	 1145
 797	 1129
 797	 1130
 797	 1131
 797	 1132
 797	 1133
 797	 1134
 797	 1135
 797	 1136
 797	 1137
 797	 1138
 797	 1139
 797	 1140
 797	 1141
 797	 1142
 797	 1143
 797	 1144
 797	 1145
 797	 1146
 797	 1147
 798	 1135
 798	 1136
 798	 1137
 798	 1138
 798	 1139
 798	 1140
 798	 1141
 798	 1142
 798	 1143
 798	 1144
 798	 1145
 798	 1146
 798	 1147
 798	 1148
 798	 1149
 798	 1150
 799	 1141
 799	 1142
 799	 1143
 799	 1144
 799	 1145
 799	 1146
 799	 1147
 799	 1148
 799	 1149
 799	 1150
 799	 1151
 799	 1152
 799	 1153
 799	 1154
 799	 1155
 799	 1156
 799	 1157
 799	 1158
 799	 1159
 799	 1160
 799	 1161
 800	 1145
 800	 1146
 800	 1147
 800	 1148
 800	 1149
 800	 1150
 800	 1151
 800	 1152
 800	 1153
 800	 1154
 800	 1155
 800	 1156
 800	 1157
 800	 1158
 800	 1159
 800	 1160
 800	 1161
 800	 1162
 800	 1163
 800	 1164
 800	 1165
 800	 1166
 800	 1167
 800	 1168
 801	 1147
 801	 1148
 801	 1149
 801	 1150
 801	 1151
 801	 1152
 801	 1153
 801	 1154
 801	 1155
 801	 1156
 801	 1157
 801	 1158
 801	 1159
 801	 1160
 801	 1161
 801	 1162
 801	 1163
 801	 1164
 801	 1165
 801	 1166
 801	 1167
 801	 1168
 802	 1141
 802	 1142
 802	 1143
 802	 1144
 802	 1145
 802	 1146
 802	 1147
 802	 1148
 802	 1149
 802	 1150
 802	 1151
 802	 1152
 802	 1153
 802	 1154
 802	 1155
 802	 1156
 802	 1157
 802	 1158
 802	 1159
 802	 1160
 802	 1161
 802	 1162
 802	 1163
 802	 1164
 802	 1165
 802	 1166
 802	 1167
 802	 1168
 803	 1142
 803	 1143
 803	 1144
 803	 1145
 803	 1146
 803	 1147
 803	 1148
 803	 1149
 803	 1150
 803	 1151
 803	 1152
 803	 1153
 803	 1154
 803	 1155
 803	 1156
 803	 1157
 803	 1158
 803	 1159
 803	 1160
 803	 1161
 803	 1162
 803	 1163
 803	 1164
 803	 1165
 803	 1166
 803	 1167
 803	 1168
 804	 1144
 804	 1145
 804	 1146
 804	 1147
 804	 1148
 804	 1149
 804	 1150
 804	 1151
 804	 1152
 804	 1153
 804	 1154
 804	 1155
 804	 1156
 804	 1157
 804	 1158
 804	 1159
 804	 1160
 804	 1161
 804	 1162
 804	 1163
 804	 1164
 804	 1165
 804	 1166
 804	 1167
 804	 1168
 804	 1169
 805	 1146
 805	 1147
 805	 1148
 805	 1149
 805	 1150
 805	 1151
 805	 1152
 805	 1153
 805	 1154
 805	 1155
 805	 1156
 805	 1157
 805	 1158
 805	 1159
 805	 1160
 805	 1161
 805	 1162
 805	 1163
 805	 1164
 805	 1165
 805	 1166
 805	 1167
 805	 1168
 806	 1146
 806	 1147
 806	 1148
 806	 1149
 806	 1150
 806	 1151
 806	 1152
 806	 1153
 806	 1154
 806	 1155
 806	 1156
 806	 1157
 806	 1158
 806	 1159
 806	 1160
 806	 1161
 806	 1162
 807	 1145
 807	 1146
 807	 1147
 807	 1148
 807	 1149
 807	 1150
 807	 1151
 807	 1152
 807	 1153
 807	 1154
 807	 1155
 807	 1156
 807	 1157
 808	 1145
 808	 1146
 808	 1147
 808	 1148
 808	 1149
 808	 1150
 808	 1151
 809	 1145
 809	 1146
 809	 1147
 809	 1148
 809	 1149
 809	 1150
 809	 1151
 809	 1152
 809	 1153
 809	 1154
 809	 1155
 809	 1156
 810	 1145
 810	 1146
 810	 1147
 810	 1148
 810	 1149
 810	 1150
 810	 1151
 810	 1152
 810	 1153
 810	 1154
 810	 1155
 810	 1156
 810	 1157
 810	 1158
 810	 1159
 810	 1160
 811	 1145
 811	 1146
 811	 1147
 811	 1148
 811	 1149
 811	 1150
 811	 1151
 811	 1152
 811	 1153
 811	 1154
 811	 1155
 811	 1156
 811	 1157
 811	 1158
 811	 1159
 811	 1160
 811	 1161
 811	 1162
 811	 1163
 811	 1164
 811	 1165
 811	 1166
 811	 1167
 812	 1151
 812	 1152
 812	 1153
 812	 1154
 812	 1155
 812	 1156
 812	 1157
 812	 1158
 812	 1159
 812	 1160
 812	 1161
 812	 1162
 812	 1163
 812	 1164
 812	 1165
 812	 1166
 812	 1167
 812	 1168
 812	 1169
 812	 1170
 812	 1171
 813	 1157
 813	 1158
 813	 1159
 813	 1160
 813	 1161
 813	 1162
 813	 1163
 813	 1164
 813	 1165
 813	 1166
 813	 1167
 813	 1168
 813	 1169
 813	 1170
 813	 1171
 813	 1172
 814	 1162
 814	 1163
 814	 1164
 814	 1165
 814	 1166
 814	 1167
 814	 1168
 814	 1169
 814	 1170
 814	 1171
 814	 1172
 814	 1173
 814	 1174
 814	 1175
 815	 1168
 815	 1169
 815	 1170
 815	 1171
 815	 1172
 815	 1173
 815	 1174
 815	 1175
 815	 1176
 815	 1177
 815	 1178
 815	 1179
 816	 1169
 816	 1170
 816	 1171
 816	 1172
 816	 1173
 816	 1174
 816	 1175
 816	 1176
 816	 1177
 816	 1178
 816	 1179
 816	 1180
 816	 1181
 817	 1171
 817	 1172
 817	 1173
 817	 1174
 817	 1175
 817	 1176
 817	 1177
 817	 1178
 817	 1179
 817	 1180
 817	 1181
 817	 1182
 817	 1183
 818	 1174
 818	 1175
 818	 1176
 818	 1177
 818	 1178
 818	 1179
 818	 1180
 818	 1181
 818	 1182
 818	 1183
 819	 1174
 819	 1175
 819	 1176
 819	 1177
 819	 1178
 819	 1179
 819	 1180
 819	 1181
 819	 1182
 819	 1183
 820	 1171
 820	 1172
 820	 1173
 820	 1174
 820	 1175
 820	 1176
 820	 1177
 820	 1178
 820	 1179
 820	 1180
 820	 1181
 820	 1182
 820	 1183
 821	 1171
 821	 1172
 821	 1173
 821	 1174
 821	 1175
 821	 1176
 821	 1177
 821	 1178
 821	 1179
 821	 1180
 821	 1181
 822	 1168
 822	 1169
 822	 1170
 822	 1171
 822	 1172
 822	 1173
 822	 1174
 822	 1175
 822	 1176
 822	 1177
 822	 1178
 822	 1179
 823	 1162
 823	 1163
 823	 1164
 823	 1165
 823	 1166
 823	 1167
 823	 1168
 823	 1169
 823	 1170
 823	 1171
 823	 1172
 823	 1173
 823	 1174
 823	 1175
 824	 1157
 824	 1158
 824	 1159
 824	 1160
 824	 1161
 824	 1162
 824	 1163
 824	 1164
 824	 1165
 824	 1166
 824	 1167
 824	 1168
 824	 1169
 824	 1170
 824	 1171
 824	 1172
 824	 1173
 825	 1153
 825	 1154
 825	 1155
 825	 1156
 825	 1157
 825	 1158
 825	 1159
 825	 1160
 825	 1161
 825	 1162
 825	 1163
 825	 1164
 825	 1165
 825	 1166
 825	 1167
 825	 1168
 825	 1169
 825	 1170
 825	 1171
 826	 1149
 826	 1150
 826	 1151
 826	 1152
 826	 1153
 826	 1154
 826	 1155
 826	 1156
 826	 1157
 826	 1158
 826	 1159
 826	 1160
 826	 1161
 826	 1162
 826	 1163
 826	 1164
 826	 1165
 826	 1166
 826	 1167
 827	 1146
 827	 1147
 827	 1148
 827	 1149
 827	 1150
 827	 1151
 827	 1152
 827	 1153
 827	 1154
 827	 1155
 827	 1156
 827	 1157
 827	 1158
 827	 1159
 827	 1160
 827	 1161
 828	 1143
 828	 1144
 828	 1145
 828	 1146
 828	 1147
 828	 1148
 828	 1149
 828	 1150
 828	 1151
 828	 1152
 828	 1153
 828	 1154
 828	 1155
 828	 1156
 828	 1157
 829	 1140
 829	 1141
 829	 1142
 829	 1143
 829	 1144
 829	 1145
 829	 1146
 829	 1147
 829	 1148
 829	 1149
 829	 1150
 829	 1151
 829	 1152
 829	 1153
 830	 1137
 830	 1138
 830	 1139
 830	 1140
 830	 1141
 830	 1142
 830	 1143
 830	 1144
 830	 1145
 830	 1146
 830	 1147
 830	 1148
 830	 1149
 831	 1133
 831	 1134
 831	 1135
 831	 1136
 831	 1137
 831	 1138
 831	 1139
 831	 1140
 831	 1141
 831	 1142
 831	 1143
 831	 1144
 831	 1145
 832	 1129
 832	 1130
 832	 1131
 832	 1132
 832	 1133
 832	 1134
 832	 1135
 832	 1136
 832	 1137
 832	 1138
 832	 1139
 832	 1140
 832	 1141
 832	 1142
 833	 1126
 833	 1127
 833	 1128
 833	 1129
 833	 1130
 833	 1131
 833	 1132
 833	 1133
 833	 1134
 833	 1135
 833	 1136
 833	 1137
 833	 1138
 833	 1139
 833	 1140
 834	 1122
 834	 1123
 834	 1124
 834	 1125
 834	 1126
 834	 1127
 834	 1128
 834	 1129
 834	 1130
 834	 1131
 834	 1132
 834	 1133
 834	 1134
 834	 1135
 834	 1136
 834	 1137
 835	 1119
 835	 1120
 835	 1121
 835	 1122
 835	 1123
 835	 1124
 835	 1125
 835	 1126
 835	 1127
 835	 1128
 835	 1129
 835	 1130
 835	 1131
 835	 1132
 835	 1133
 836	 1116
 836	 1117
 836	 1118
 836	 1119
 836	 1120
 836	 1121
 836	 1122
 836	 1123
 836	 1124
 836	 1125
 836	 1126
 836	 1127
 836	 1128
 836	 1129
 837	 1113
 837	 1114
 837	 1115
 837	 1116
 837	 1117
 837	 1118
 837	 1119
 837	 1120
 837	 1121
 837	 1122
 837	 1123
 837	 1124
 837	 1125
 838	 1109
 838	 1110
 838	 1111
 838	 1112
 838	 1113
 838	 1114
 838	 1115
 838	 1116
 838	 1117
 838	 1118
 838	 1119
 838	 1120
 838	 1121
 839	 1105
 839	 1106
 839	 1107
 839	 1108
 839	 1109
 839	 1110
 839	 1111
 839	 1112
 839	 1113
 839	 1114
 839	 1115
 839	 1116
 839	 1117
 839	 1118
 840	 1102
 840	 1103
 840	 1104
 840	 1105
 840	 1106
 840	 1107
 840	 1108
 840	 1109
 840	 1110
 840	 1111
 840	 1112
 840	 1113
 840	 1114
 840	 1115
 840	 1116
 841	 1099
 841	 1100
 841	 1101
 841	 1102
 841	 1103
 841	 1104
 841	 1105
 841	 1106
 841	 1107
 841	 1108
 841	 1109
 841	 1110
 841	 1111
 841	 1112
 841	 1113
 842	 1096
 842	 1097
 842	 1098
 842	 1099
 842	 1100
 842	 1101
 842	 1102
 842	 1103
 842	 1104
 842	 1105
 842	 1106
 842	 1107
 842	 1108
 843	 1094
 843	 1095
 843	 1096
 843	 1097
 843	 1098
 843	 1099
 843	 1100
 843	 1101
 843	 1102
 843	 1103
 843	 1104
 843	 1105
 844	 1091
 844	 1092
 844	 1093
 844	 1094
 844	 1095
 844	 1096
 844	 1097
 844	 1098
 844	 1099
 844	 1100
 844	 1101
 844	 1102
 845	 1087
 845	 1088
 845	 1089
 845	 1090
 845	 1091
 845	 1092
 845	 1093
 845	 1094
 845	 1095
 845	 1096
 845	 1097
 845	 1098
 845	 1099
 846	 1084
 846	 1085
 846	 1086
 846	 1087
 846	 1088
 846	 1089
 846	 1090
 846	 1091
 846	 1092
 846	 1093
 846	 1094
 846	 1095
 846	 1096
 847	 1082
 847	 1083
 847	 1084
 847	 1085
 847	 1086
 847	 1087
 847	 1088
 847	 1089
 847	 1090
 847	 1091
 847	 1092
 847	 1093
 848	 1080
 848	 1081
 848	 1082
 848	 1083
 848	 1084
 848	 1085
 848	 1086
 848	 1087
 848	 1088
 848	 1089
 848	 1090
 849	 1076
 849	 1077
 849	 1078
 849	 1079
 849	 1080
 849	 1081
 849	 1082
 849	 1083
 849	 1084
 849	 1085
 849	 1086
 849	 1087
 850	 1073
 850	 1074
 850	 1075
 850	 1076
 850	 1077
 850	 1078
 850	 1079
 850	 1080
 850	 1081
 850	 1082
 850	 1083
 850	 1084
 851	 1070
 851	 1071
 851	 1072
 851	 1073
 851	 1074
 851	 1075
 851	 1076
 851	 1077
 851	 1078
 851	 1079
 851	 1080
 851	 1081
 851	 1082
 852	 1067
 852	 1068
 852	 1069
 852	 1070
 852	 1071
 852	 1072
 852	 1073
 852	 1074
 852	 1075
 852	 1076
 852	 1077
 852	 1078
 852	 1079
 852	 1080
 853	 1063
 853	 1064
 853	 1065
 853	 1066
 853	 1067
 853	 1068
 853	 1069
 853	 1070
 853	 1071
 853	 1072
 853	 1073
 853	 1074
 853	 1075
 853	 1076
 854	 1059
 854	 1060
 854	 1061
 854	 1062
 854	 1063
 854	 1064
 854	 1065
 854	 1066
 854	 1067
 854	 1068
 854	 1069
 854	 1070
 854	 1071
 854	 1072
 854	 1073
 855	 1055
 855	 1056
 855	 1057
 855	 1058
 855	 1059
 855	 1060
 855	 1061
 855	 1062
 855	 1063
 855	 1064
 855	 1065
 855	 1066
 855	 1067
 855	 1068
 855	 1069
 855	 1070
 856	 1050
 856	 1051
 856	 1052
 856	 1053
 856	 1054
 856	 1055
 856	 1056
 856	 1057
 856	 1058
 856	 1059
 856	 1060
 856	 1061
 856	 1062
 856	 1063
 856	 1064
 856	 1065
 856	 1066
 857	 1046
 857	 1047
 857	 1048
 857	 1049
 857	 1050
 857	 1051
 857	 1052
 857	 1053
 857	 1054
 857	 1055
 857	 1056
 857	 1057
 857	 1058
 857	 1059
 857	 1060
 857	 1061
 857	 1062
 858	 1042
 858	 1043
 858	 1044
 858	 1045
 858	 1046
 858	 1047
 858	 1048
 858	 1049
 858	 1050
 858	 1051
 858	 1052
 858	 1053
 858	 1054
 858	 1055
 858	 1056
 858	 1057
 858	 1058
 858	 1059
 859	 1038
 859	 1039
 859	 1040
 859	 1041
 859	 1042
 859	 1043
 859	 1044
 859	 1045
 859	 1046
 859	 1047
 859	 1048
 859	 1049
 859	 1050
 859	 1051
 859	 1052
 859	 1053
 859	 1054
 859	 1055
 860	 1036
 860	 1037
 860	 1038
 860	 1039
 860	 1040
 860	 1041
 860	 1042
 860	 1043
 860	 1044
 860	 1045
 860	 1046
 860	 1047
 860	 1048
 860	 1049
 861	 1034
 861	 1035
 861	 1036
 861	 1037
 861	 1038
 861	 1039
 861	 1040
 861	 1041
 861	 1042
 861	 1043
 861	 1044
 861	 1045
 862	 1032
 862	 1033
 862	 1034
 862	 1035
 862	 1036
 862	 1037
 862	 1038
 862	 1039
 862	 1040
 862	 1041
 863	 1030
 863	 1031
 863	 1032
 863	 1033
 863	 1034
 863	 1035
 863	 1036
 863	 1037
 863	 1038
 864	 1028
 864	 1029
 864	 1030
 864	 1031
 864	 1032
 864	 1033
 864	 1034
 864	 1035
 864	 1036
 865	 1027
 865	 1028
 865	 1029
 865	 1030
 865	 1031
 865	 1032
 865	 1033
 865	 1034
 866	 1026
 866	 1027
 866	 1028
 866	 1029
 866	 1030
 866	 1031
 866	 1032
 867	 1024
 867	 1025
 867	 1026
 867	 1027
 867	 1028
 867	 1029
 867	 1030
 868	 1022
 868	 1023
 868	 1024
 868	 1025
 868	 1026
 868	 1027
 868	 1028
 868	 1029
 869	 1020
 869	 1021
 869	 1022
 869	 1023
 869	 1024
 869	 1025
 869	 1026
 869	 1027
 869	 1028
 870	 1018
 870	 1019
 870	 1020
 870	 1021
 870	 1022
 870	 1023
 870	 1024
 870	 1025
 870	 1026
 871	 1016
 871	 1017
 871	 1018
 871	 1019
 871	 1020
 871	 1021
 871	 1022
 871	 1023
 871	 1024
 872	 1016
 872	 1017
 872	 1018
 872	 1019
 872	 1020
 872	 1021
 872	 1022
 873	 1016
 873	 1017
 873	 1018
 873	 1019
 873	 1020
 874	 1016
 874	 1017
 874	 1018
 874	 1019
 875	 1015
 875	 1016
 875	 1017
 875	 1018
 875	 1019
 876	 1015
 876	 1016
 876	 1017
 876	 1018
 876	 1019
 877	 1015
 877	 1016
 877	 1017
 877	 1018
 878	 1013
 878	 1014
 878	 1015
 878	 1016
 878	 1017
 878	 1018
 879	 1012
 879	 1013
 879	 1014
 879	 1015
 879	 1016
 879	 1017
 879	 1018
 880	 1011
 880	 1012
 880	 1013
 880	 1014
 880	 1015
 880	 1016
 880	 1017
 880	 1018
 881	 1009
 881	 1010
 881	 1011
 881	 1012
 881	 1013
 881	 1014
 881	 1015
 882	 1008
 882	 1009
 882	 1010
 882	 1011
 882	 1012
 882	 1013
 883	 1008
 883	 1009
 883	 1010
 883	 1011
 883	 1012
 884	 1008
 884	 1009
 884	 1010
 884	 1011
 885	 1008
 885	 1009
 885	 1010
 885	 1011
 886	 1008
 886	 1009
 886	 1010
 886	 1011
 887	 1008
 887	 1009
 887	 1010
 887	 1011
 888	 1008
 888	 1009
 888	 1010
 888	 1011
 889	 1007
 889	 1008
 889	 1009
 889	 1010
 889	 1011
 890	 1006
 890	 1007
 890	 1008
 890	 1009
 890	 1010
 890	 1011
 891	 1005
 891	 1006
 891	 1007
 891	 1008
 891	 1009
 891	 1010
 892	 1004
 892	 1005
 892	 1006
 892	 1007
 892	 1008
 892	 1009
 893	 1003
 893	 1004
 893	 1005
 893	 1006
 893	 1007
 893	 1008
 894	 1002
 894	 1003
 894	 1004
 894	 1005
 894	 1006
 894	 1007
 895	 1001
 895	 1002
 895	 1003
 895	 1004
 895	 1005
 895	 1006
 896	 1001
 896	 1002
 896	 1003
 896	 1004
 896	 1005
 897	 1001
 897	 1002
 897	 1003
 897	 1004
 898	 1001
 898	 1002
 898	 1003
 898	 1004
 899	 1001
 899	 1002
 899	 1003
 899	 1004
 900	 1001
 900	 1002
 900	 1003
 900	 1004
 901	 1001
 901	 1002
 901	 1003
 901	 1004
 902	 1001
 902	 1002
 902	 1003
 902	 1004
 903	 1000
 903	 1001
 903	 1002
 903	 1003
 903	 1004
 904	 999
 904	 1000
 904	 1001
 904	 1002
 904	 1003
 904	 1004
 905	 998
 905	 999
 905	 1000
 905	 1001
 905	 1002
 905	 1003
 906	 997
 906	 998
 906	 999
 906	 1000
 906	 1001
 906	 1002
 907	 997
 907	 998
 907	 999
 907	 1000
 907	 1001
 907	 1002
 908	 997
 908	 998
 908	 999
 908	 1000
 908	 1001
 908	 1002
 909	 999
 909	 1000
 909	 1001
 909	 1002
 910	 997
 910	 998
 910	 999
 910	 1000
 910	 1001
 910	 1002
 911	 997
 911	 998
 911	 999
 911	 1000
 911	 1001
 911	 1002
 912	 997
 912	 998
 912	 999
 912	 1000
 912	 1001
 912	 1002
 913	 997
 913	 998
 913	 999
 913	 1000
 913	 1001
 914	 997
 914	 998
 914	 999
 914	 1000
 914	 1001
 914	 1002
 915	 997
 915	 998
 915	 999
 915	 1000
 915	 1001
 915	 1002
 916	 999
 916	 1000
 916	 1001
 916	 1002
 917	 999
 917	 1000
 917	 1001
 917	 1002
 918	 999
 918	 1000
 918	 1001
 918	 1002
 919	 999
 919	 1000
 919	 1001
 919	 1002
 920	 999
 920	 1000
 920	 1001
 920	 1002
 921	 999
 921	 1000
 921	 1001
 921	 1002
 921	 1003
 921	 1004
 922	 999
 922	 1000
 922	 1001
 922	 1002
 922	 1003
 922	 1004
 923	 1000
 923	 1001
 923	 1002
 923	 1003
 923	 1004
 924	 1001
 924	 1002
 924	 1003
 924	 1004
 925	 1001
 925	 1002
 925	 1003
 925	 1004
 926	 1001
 926	 1002
 926	 1003
 926	 1004
 927	 1001
 927	 1002
 927	 1003
 927	 1004
 928	 1001
 928	 1002
 928	 1003
 928	 1004
 929	 1001
 929	 1002
 929	 1003
 929	 1004
 929	 1005
 930	 1002
 930	 1003
 930	 1004
 930	 1005
 930	 1006
 931	 1003
 931	 1004
 931	 1005
 931	 1006
 931	 1007
 931	 1008
 932	 1004
 932	 1005
 932	 1006
 932	 1007
 932	 1008
 932	 1009
 933	 1005
 933	 1006
 933	 1007
 933	 1008
 933	 1009
 934	 1006
 934	 1007
 934	 1008
 934	 1009
 935	 1006
 935	 1007
 935	 1008
 935	 1009
 935	 1010
 935	 1011
 936	 1006
 936	 1007
 936	 1008
 936	 1009
 936	 1010
 936	 1011
 937	 1007
 937	 1008
 937	 1009
 937	 1010
 937	 1011
 938	 1008
 938	 1009
 938	 1010
 938	 1011
 938	 1012
 939	 1008
 939	 1009
 939	 1010
 939	 1011
 939	 1012
 939	 1013
 939	 1014
 940	 1008
 940	 1009
 940	 1010
 940	 1011
 940	 1012
 940	 1013
 940	 1014
 940	 1015
 941	 1010
 941	 1011
 941	 1012
 941	 1013
 941	 1014
 941	 1015
 941	 1016
 942	 1012
 942	 1013
 942	 1014
 942	 1015
 942	 1016
 942	 1017
 943	 1013
 943	 1014
 943	 1015
 943	 1016
 943	 1017
 944	 1014
 944	 1015
 944	 1016
 944	 1017
 944	 1018
 945	 1015
 945	 1016
 945	 1017
 945	 1018
 945	 1019
 945	 1020
 946	 1016
 946	 1017
 946	 1018
 946	 1019
 946	 1020
 946	 1021
 947	 1016
 947	 1017
 947	 1018
 947	 1019
 947	 1020
 947	 1021
 948	 1018
 948	 1019
 948	 1020
 948	 1021
 949	 1018
 949	 1019
 949	 1020
 949	 1021
 949	 1022
 949	 1023
 950	 1018
 950	 1019
 950	 1020
 950	 1021
 950	 1022
 950	 1023
 951	 1019
 951	 1020
 951	 1021
 951	 1022
 951	 1023
 952	 1020
 952	 1021
 952	 1022
 952	 1023
 952	 1024
 953	 1020
 953	 1021
 953	 1022
 953	 1023
 953	 1024
 953	 1025
 954	 1020
 954	 1021
 954	 1022
 954	 1023
 954	 1024
 954	 1025
 954	 1026
 955	 1021
 955	 1022
 955	 1023
 955	 1024
 955	 1025
 955	 1026
 955	 1027
 956	 1024
 956	 1025
 956	 1026
 956	 1027
 956	 1028
 957	 1025
 957	 1026
 957	 1027
 957	 1028
 957	 1029
 958	 1026
 958	 1027
 958	 1028
 958	 1029
 958	 1030
 959	 1027
 959	 1028
 959	 1029
 959	 1030
 959	 1031
 960	 1028
 960	 1029
 960	 1030
 960	 1031
 960	 1032
 961	 1029
 961	 1030
 961	 1031
 961	 1032
 961	 1033
 962	 1029
 962	 1030
 962	 1031
 962	 1032
 962	 1033
 962	 1034
 963	 1030
 963	 1031
 963	 1032
 963	 1033
 963	 1034
 963	 1035
 964	 1031
 964	 1032
 964	 1033
 964	 1034
 964	 1035
 964	 1036
 965	 1032
 965	 1033
 965	 1034
 965	 1035
 965	 1036
 965	 1037
 966	 1033
 966	 1034
 966	 1035
 966	 1036
 966	 1037
 966	 1038
 966	 1039
 967	 1034
 967	 1035
 967	 1036
 967	 1037
 967	 1038
 967	 1039
 967	 1040
 968	 1035
 968	 1036
 968	 1037
 968	 1038
 968	 1039
 968	 1040
 969	 1036
 969	 1037
 969	 1038
 969	 1039
 969	 1040
 970	 1037
 970	 1038
 970	 1039
 970	 1040
 971	 1037
 971	 1038
 971	 1039
 971	 1040
 971	 1041
 972	 1037
 972	 1038
 972	 1039
 972	 1040
 972	 1041
 972	 1042
 973	 1038
 973	 1039
 973	 1040
 973	 1041
 973	 1042
 973	 1043
 973	 1044
 974	 1039
 974	 1040
 974	 1041
 974	 1042
 974	 1043
 974	 1044
 974	 1045
 975	 1040
 975	 1041
 975	 1042
 975	 1043
 975	 1044
 975	 1045
 976	 1041
 976	 1042
 976	 1043
 976	 1044
 976	 1045
 977	 1043
 977	 1044
 977	 1045
 977	 1046
 978	 1043
 978	 1044
 978	 1045
 978	 1046
 978	 1047
 979	 1043
 979	 1044
 979	 1045
 979	 1046
 979	 1047
 980	 1044
 980	 1045
 980	 1046
 980	 1047
 981	 1044
 981	 1045
 981	 1046
 981	 1047
 981	 1048
 982	 1044
 982	 1045
 982	 1046
 982	 1047
 982	 1048
 982	 1049
 983	 1045
 983	 1046
 983	 1047
 983	 1048
 983	 1049
 983	 1050
 984	 1046
 984	 1047
 984	 1048
 984	 1049
 984	 1050
 985	 1047
 985	 1048
 985	 1049
 985	 1050
 986	 1048
 986	 1049
 986	 1050
 987	 1048
 987	 1049
 987	 1050
 988	 1048
 988	 1049
 988	 1050
 988	 1051
 988	 1052
 989	 1048
 989	 1049
 989	 1050
 989	 1051
 989	 1052
 990	 1048
 990	 1049
 990	 1050
 990	 1051
 990	 1052
 991	 1049
 991	 1050
 991	 1051
 991	 1052
 992	 1049
 992	 1050
 992	 1051
 992	 1052
 992	 1053
 993	 1049
 993	 1050
 993	 1051
 993	 1052
 993	 1053
 993	 1054
 994	 1050
 994	 1051
 994	 1052
 994	 1053
 994	 1054
 994	 1055
 995	 1051
 995	 1052
 995	 1053
 995	 1054
 995	 1055
 995	 1056
 996	 1052
 996	 1053
 996	 1054
 996	 1055
 996	 1056
 997	 1053
 997	 1054
 997	 1055
 997	 1056
 998	 1053
 998	 1054
 998	 1055
 998	 1056
 999	 1053
 999	 1054
 999	 1055
 999	 1056
 999	 1057
 1000	 1053
 1000	 1054
 1000	 1055
 1000	 1056
 1000	 1057
 1001	 1054
 1001	 1055
 1001	 1056
 1001	 1057
 1002	 1055
 1002	 1056
 1002	 1057
 1003	 1055
 1003	 1056
 1003	 1057
 1004	 1055
 1004	 1056
 1004	 1057
 1005	 1055
 1005	 1056
 1005	 1057
 1006	 1055
 1006	 1056
 1006	 1057
 1007	 1055
 1007	 1056
 1007	 1057
 1008	 1055
 1008	 1056
 1008	 1057
 1009	 1055
 1009	 1056
 1009	 1057
 1009	 1058
 1010	 1055
 1010	 1056
 1010	 1057
 1010	 1058
 1010	 1059
 1011	 1055
 1011	 1056
 1011	 1057
 1011	 1058
 1011	 1059
 1012	 1056
 1012	 1057
 1012	 1058
 1012	 1059
 1013	 1056
 1013	 1057
 1013	 1058
 1013	 1059
 1013	 1060
 1013	 1061
 1014	 1056
 1014	 1057
 1014	 1058
 1014	 1059
 1014	 1060
 1014	 1061
 1015	 1057
 1015	 1058
 1015	 1059
 1015	 1060
 1015	 1061
 1016	 1057
 1016	 1058
 1016	 1059
 1016	 1060
 1016	 1061
 1017	 1056
 1017	 1057
 1017	 1058
 1017	 1059
 1017	 1060
 1017	 1061
 1018	 1056
 1018	 1057
 1018	 1058
 1018	 1059
 1018	 1060
 1018	 1061
 1019	 1056
 1019	 1057
 1019	 1058
 1019	 1059
 1019	 1060
 1020	 1056
 1020	 1057
 1020	 1058
 1020	 1059
 1021	 1056
 1021	 1057
 1021	 1058
 1021	 1059
 1022	 1056
 1022	 1057
 1022	 1058
 1022	 1059
 1023	 1056
 1023	 1057
 1023	 1058
 1023	 1059
 1024	 1056
 1024	 1057
 1024	 1058
 1024	 1059
 1025	 1056
 1025	 1057
 1025	 1058
 1025	 1059
 1026	 1056
 1026	 1057
 1026	 1058
 1026	 1059
 1027	 1056
 1027	 1057
 1027	 1058
 1027	 1059
 1027	 1060
 1027	 1061
 1028	 1056
 1028	 1057
 1028	 1058
 1028	 1059
 1028	 1060
 1028	 1061
 1029	 1057
 1029	 1058
 1029	 1059
 1029	 1060
 1029	 1061
 1030	 1058
 1030	 1059
 1030	 1060
 1030	 1061
 1031	 1058
 1031	 1059
 1031	 1060
 1031	 1061
 1032	 1058
 1032	 1059
 1032	 1060
 1032	 1061
 1033	 1058
 1033	 1059
 1033	 1060
 1033	 1061
 1034	 1058
 1034	 1059
 1034	 1060
 1034	 1061
 1035	 1058
 1035	 1059
 1035	 1060
 1035	 1061
 1036	 1058
 1036	 1059
 1036	 1060
 1036	 1061
 1037	 1058
 1037	 1059
 1037	 1060
 1037	 1061
 1038	 1058
 1038	 1059
 1038	 1060
 1038	 1061
 1039	 1058
 1039	 1059
 1039	 1060
 1039	 1061
 1040	 1058
 1040	 1059
 1040	 1060
 1040	 1061
 1041	 1057
 1041	 1058
 1041	 1059
 1041	 1060
 1041	 1061
 1042	 1056
 1042	 1057
 1042	 1058
 1042	 1059
 1042	 1060
 1042	 1061
 1043	 1056
 1043	 1057
 1043	 1058
 1043	 1059
 1043	 1060
 1043	 1061
 1044	 1056
 1044	 1057
 1044	 1058
 1044	 1059
 1045	 1056
 1045	 1057
 1045	 1058
 1045	 1059
 1045	 1060
 1045	 1061
 1046	 1056
 1046	 1057
 1046	 1058
 1046	 1059
 1046	 1060
 1046	 1061
 1047	 1057
 1047	 1058
 1047	 1059
 1047	 1060
 1047	 1061
 1048	 1057
 1048	 1058
 1048	 1059
 1048	 1060
 1048	 1061
 1049	 1056
 1049	 1057
 1049	 1058
 1049	 1059
 1049	 1060
 1049	 1061
 1050	 1056
 1050	 1057
 1050	 1058
 1050	 1059
 1050	 1060
 1050	 1061
 1051	 1056
 1051	 1057
 1051	 1058
 1051	 1059
 1052	 1056
 1052	 1057
 1052	 1058
 1052	 1059
 1052	 1060
 1052	 1061
 1053	 1056
 1053	 1057
 1053	 1058
 1053	 1059
 1053	 1060
 1053	 1061
 1054	 1057
 1054	 1058
 1054	 1059
 1054	 1060
 1054	 1061
 1055	 1058
 1055	 1059
 1055	 1060
 1055	 1061
 1056	 1058
 1056	 1059
 1056	 1060
 1056	 1061
 1056	 1062
 1056	 1063
 1057	 1058
 1057	 1059
 1057	 1060
 1057	 1061
 1057	 1062
 1057	 1063
 1058	 1059
 1058	 1060
 1058	 1061
 1058	 1062
 1058	 1063
 1059	 1060
 1059	 1061
 1059	 1062
 1059	 1063
 1060	 1060
 1060	 1061
 1060	 1062
 1060	 1063
 1061	 1060
 1061	 1061
 1061	 1062
 1061	 1063
 1062	 1060
 1062	 1061
 1062	 1062
 1062	 1063
 1063	 1060
 1063	 1061
 1063	 1062
 1063	 1063
 1064	 1060
 1064	 1061
 1064	 1062
 1064	 1063
 1065	 1060
 1065	 1061
 1065	 1062
 1065	 1063
 1066	 1058
 1066	 1059
 1066	 1060
 1066	 1061
 1066	 1062
 1066	 1063
 1067	 1057
 1067	 1058
 1067	 1059
 1067	 1060
 1067	 1061
 1067	 1062
 1067	 1063
 1068	 1056
 1068	 1057
 1068	 1058
 1068	 1059
 1068	 1060
 1068	 1061
 1068	 1062
 1068	 1063
 1069	 1055
 1069	 1056
 1069	 1057
 1069	 1058
 1069	 1059
 1069	 1060
 1070	 1054
 1070	 1055
 1070	 1056
 1070	 1057
 1070	 1058
 1070	 1059
 1071	 1053
 1071	 1054
 1071	 1055
 1071	 1056
 1071	 1057
 1071	 1058
 1072	 1052
 1072	 1053
 1072	 1054
 1072	 1055
 1072	 1056
 1072	 1057
 1073	 1051
 1073	 1052
 1073	 1053
 1073	 1054
 1073	 1055
 1073	 1056
 1074	 1051
 1074	 1052
 1074	 1053
 1074	 1054
 1074	 1055
 1075	 1051
 1075	 1052
 1075	 1053
 1075	 1054
 1076	 1051
 1076	 1052
 1076	 1053
 1076	 1054
 1077	 1049
 1077	 1050
 1077	 1051
 1077	 1052
 1077	 1053
 1077	 1054
 1078	 1049
 1078	 1050
 1078	 1051
 1078	 1052
 1078	 1053
 1078	 1054
 1079	 1049
 1079	 1050
 1079	 1051
 1079	 1052
 1079	 1053
 1080	 1049
 1080	 1050
 1080	 1051
 1080	 1052
 1081	 1049
 1081	 1050
 1081	 1051
 1081	 1052
 1081	 1053
 1082	 1050
 1082	 1051
 1082	 1052
 1082	 1053
 1082	 1054
 1083	 1051
 1083	 1052
 1083	 1053
 1083	 1054
 1083	 1055
 1084	 1051
 1084	 1052
 1084	 1053
 1084	 1054
 1084	 1055
 1084	 1056
 1085	 1052
 1085	 1053
 1085	 1054
 1085	 1055
 1085	 1056
 1086	 1053
 1086	 1054
 1086	 1055
 1086	 1056
 1087	 1053
 1087	 1054
 1087	 1055
 1087	 1056
 1088	 1053
 1088	 1054
 1088	 1055
 1088	 1056
 1088	 1057
 1089	 1054
 1089	 1055
 1089	 1056
 1089	 1057
 1090	 1054
 1090	 1055
 1090	 1056
 1090	 1057
 1090	 1058
 1091	 1054
 1091	 1055
 1091	 1056
 1091	 1057
 1091	 1058
 1091	 1059
 1092	 1054
 1092	 1055
 1092	 1056
 1092	 1057
 1092	 1058
 1092	 1059
 1093	 1053
 1093	 1054
 1093	 1055
 1093	 1056
 1093	 1057
 1093	 1058
 1094	 1053
 1094	 1054
 1094	 1055
 1094	 1056
 1095	 1053
 1095	 1054
 1095	 1055
 1095	 1056
 1096	 1051
 1096	 1052
 1096	 1053
 1096	 1054
 1096	 1055
 1096	 1056
 1097	 1050
 1097	 1051
 1097	 1052
 1097	 1053
 1097	 1054
 1097	 1055
 1097	 1056
 1098	 1048
 1098	 1049
 1098	 1050
 1098	 1051
 1098	 1052
 1098	 1053
 1098	 1054
 1098	 1055
 1099	 1047
 1099	 1048
 1099	 1049
 1099	 1050
 1099	 1051
 1099	 1052
 1099	 1053
 1100	 1046
 1100	 1047
 1100	 1048
 1100	 1049
 1100	 1050
 1100	 1051
 1100	 1052
 1101	 1045
 1101	 1046
 1101	 1047
 1101	 1048
 1101	 1049
 1101	 1050
 1102	 1044
 1102	 1045
 1102	 1046
 1102	 1047
 1102	 1048
 1102	 1049
 1103	 1044
 1103	 1045
 1103	 1046
 1103	 1047
 1103	 1048
 1103	 1049
 1103	 1050
 1104	 1044
 1104	 1045
 1104	 1046
 1104	 1047
 1104	 1048
 1104	 1049
 1105	 1044
 1105	 1045
 1105	 1046
 1105	 1047
 1105	 1048
 1106	 1044
 1106	 1045
 1106	 1046
 1106	 1047
 1106	 1048
 1106	 1049
 1107	 1044
 1107	 1045
 1107	 1046
 1107	 1047
 1107	 1048
 1107	 1049
 1107	 1050
 1107	 1051
 1108	 1046
 1108	 1047
 1108	 1048
 1108	 1049
 1108	 1050
 1108	 1051
 1109	 1047
 1109	 1048
 1109	 1049
 1109	 1050
 1109	 1051
 1109	 1052
 1110	 1049
 1110	 1050
 1110	 1051
 1110	 1052
 1110	 1053
 1111	 1049
 1111	 1050
 1111	 1051
 1111	 1052
 1111	 1053
 1111	 1054
 1112	 1050
 1112	 1051
 1112	 1052
 1112	 1053
 1112	 1054
 1112	 1055
 1112	 1056
 1112	 1057
 1113	 1051
 1113	 1052
 1113	 1053
 1113	 1054
 1113	 1055
 1113	 1056
 1113	 1057
 1113	 1058
 1113	 1059
 1113	 1060
 1114	 1052
 1114	 1053
 1114	 1054
 1114	 1055
 1114	 1056
 1114	 1057
 1114	 1058
 1114	 1059
 1114	 1060
 1114	 1061
 1115	 1054
 1115	 1055
 1115	 1056
 1115	 1057
 1115	 1058
 1115	 1059
 1115	 1060
 1115	 1061
 1115	 1062
 1115	 1063
 1116	 1055
 1116	 1056
 1116	 1057
 1116	 1058
 1116	 1059
 1116	 1060
 1116	 1061
 1116	 1062
 1116	 1063
 1116	 1064
 1116	 1065
 1117	 1051
 1117	 1052
 1117	 1053
 1117	 1054
 1117	 1055
 1117	 1056
 1117	 1057
 1117	 1058
 1117	 1059
 1117	 1060
 1117	 1061
 1117	 1062
 1117	 1063
 1117	 1064
 1117	 1065
 1117	 1066
 1118	 1052
 1118	 1053
 1118	 1054
 1118	 1055
 1118	 1056
 1118	 1057
 1118	 1058
 1118	 1059
 1118	 1060
 1118	 1061
 1118	 1062
 1118	 1063
 1118	 1064
 1118	 1065
 1118	 1066
 1118	 1067
 1118	 1068
 1118	 1069
 1118	 1070
 1118	 1071
 1118	 1072
 1118	 1073
 1119	 1057
 1119	 1058
 1119	 1059
 1119	 1060
 1119	 1061
 1119	 1062
 1119	 1063
 1119	 1064
 1119	 1065
 1119	 1066
 1119	 1067
 1119	 1068
 1119	 1069
 1119	 1070
 1119	 1071
 1119	 1072
 1119	 1073
 1119	 1074
 1119	 1075
 1119	 1076
 1119	 1077
 1119	 1078
 1119	 1079
 1119	 1080
 1119	 1081
 1120	 1050
 1120	 1051
 1120	 1052
 1120	 1053
 1120	 1054
 1120	 1055
 1120	 1056
 1120	 1057
 1120	 1058
 1120	 1059
 1120	 1060
 1120	 1061
 1120	 1062
 1120	 1063
 1120	 1064
 1120	 1065
 1120	 1066
 1120	 1067
 1120	 1068
 1120	 1069
 1120	 1070
 1120	 1071
 1120	 1072
 1120	 1073
 1120	 1074
 1120	 1075
 1120	 1076
 1120	 1077
 1120	 1078
 1120	 1079
 1120	 1080
 1120	 1081
 1120	 1082
 1120	 1083
 1120	 1084
 1120	 1085
 1121	 1050
 1121	 1051
 1121	 1052
 1121	 1053
 1121	 1054
 1121	 1055
 1121	 1056
 1121	 1057
 1121	 1058
 1121	 1059
 1121	 1060
 1121	 1061
 1121	 1062
 1121	 1063
 1121	 1064
 1121	 1065
 1121	 1066
 1121	 1067
 1121	 1068
 1121	 1069
 1121	 1070
 1121	 1071
 1121	 1072
 1121	 1073
 1121	 1074
 1121	 1075
 1121	 1076
 1121	 1077
 1121	 1078
 1121	 1079
 1121	 1080
 1121	 1081
 1122	 1050
 1122	 1051
 1122	 1052
 1122	 1053
 1122	 1054
 1122	 1055
 1122	 1056
 1122	 1057
 1122	 1058
 1122	 1059
 1122	 1060
 1122	 1061
 1122	 1062
 1122	 1063
 1122	 1064
 1122	 1065
 1122	 1066
 1122	 1067
 1122	 1068
 1122	 1069
 1122	 1070
 1122	 1071
 1123	 1050
 1123	 1051
 1123	 1052
 1123	 1053
 1123	 1054
 1123	 1055
 1123	 1056
 1123	 1057
 1123	 1058
 1123	 1059
 1123	 1060
 1123	 1061
 1123	 1062
 1123	 1063
 1123	 1064
 1123	 1065
 1123	 1066
 1123	 1067
 1123	 1068
 1123	 1069
 1123	 1070
 1123	 1071
 1123	 1072
 1123	 1073
 1123	 1074
 1123	 1075
 1123	 1076
 1123	 1077
 1123	 1078
 1124	 1055
 1124	 1056
 1124	 1057
 1124	 1058
 1124	 1059
 1124	 1060
 1124	 1061
 1124	 1062
 1124	 1063
 1124	 1064
 1124	 1065
 1124	 1066
 1124	 1067
 1124	 1068
 1124	 1069
 1124	 1070
 1124	 1071
 1124	 1072
 1124	 1073
 1124	 1074
 1124	 1075
 1124	 1076
 1124	 1077
 1124	 1078
 1125	 1055
 1125	 1056
 1125	 1057
 1125	 1058
 1125	 1059
 1125	 1060
 1125	 1061
 1125	 1062
 1125	 1063
 1125	 1064
 1125	 1065
 1125	 1066
 1125	 1067
 1125	 1068
 1125	 1069
 1125	 1070
 1126	 1055
 1126	 1056
 1126	 1057
 1126	 1058
 1126	 1059
 1126	 1060
 1126	 1061
 1126	 1062
 1126	 1063
 1126	 1064
 1126	 1065
 1126	 1066
 1126	 1067
 1126	 1068
 1127	 1058
 1127	 1059
 1127	 1060
 1127	 1061
 1127	 1062
 1127	 1063
 1127	 1064
 1127	 1065
 1127	 1066
 1127	 1067
 1127	 1068
 1127	 1069
 1127	 1070
 1128	 1063
 1128	 1064
 1128	 1065
 1128	 1066
 1128	 1067
 1128	 1068
 1128	 1069
 1128	 1070
 1128	 1071
 1128	 1072
 1129	 1065
 1129	 1066
 1129	 1067
 1129	 1068
 1129	 1069
 1129	 1070
 1129	 1071
 1129	 1072
 1129	 1073
 1130	 1068
 1130	 1069
 1130	 1070
 1130	 1071
 1130	 1072
 1130	 1073
 1130	 1074
 1131	 1070
 1131	 1071
 1131	 1072
 1131	 1073
 1131	 1074
 1131	 1075
 1132	 1071
 1132	 1072
 1132	 1073
 1132	 1074
 1132	 1075
 1132	 1076
 1133	 1070
 1133	 1071
 1133	 1072
 1133	 1073
 1133	 1074
 1133	 1075
 1133	 1076
 1134	 1071
 1134	 1072
 1134	 1073
 1134	 1074
 1134	 1075
 1134	 1076
 1134	 1077
 1134	 1078
 1134	 1079
 1135	 1072
 1135	 1073
 1135	 1074
 1135	 1075
 1135	 1076
 1135	 1077
 1135	 1078
 1135	 1079
 1136	 1072
 1136	 1073
 1136	 1074
 1136	 1075
 1136	 1076
 1136	 1077
 1136	 1078
 1136	 1079
 1136	 1080
 1137	 1073
 1137	 1074
 1137	 1075
 1137	 1076
 1137	 1077
 1137	 1078
 1137	 1079
 1137	 1080
 1137	 1081
 1137	 1082
 1137	 1083
 1138	 1074
 1138	 1075
 1138	 1076
 1138	 1077
 1138	 1078
 1138	 1079
 1138	 1080
 1138	 1081
 1138	 1082
 1138	 1083
 1138	 1084
 1138	 1085
 1138	 1086
 1139	 1077
 1139	 1078
 1139	 1079
 1139	 1080
 1139	 1081
 1139	 1082
 1139	 1083
 1139	 1084
 1139	 1085
 1139	 1086
 1139	 1087
 1139	 1088
 1139	 1089
 1140	 1081
 1140	 1082
 1140	 1083
 1140	 1084
 1140	 1085
 1140	 1086
 1140	 1087
 1140	 1088
 1140	 1089
 1140	 1090
 1141	 1083
 1141	 1084
 1141	 1085
 1141	 1086
 1141	 1087
 1141	 1088
 1141	 1089
 1141	 1090
 1141	 1091
 1142	 1086
 1142	 1087
 1142	 1088
 1142	 1089
 1142	 1090
 1142	 1091
 1142	 1092
 1142	 1093
 1142	 1094
 1143	 1088
 1143	 1089
 1143	 1090
 1143	 1091
 1143	 1092
 1143	 1093
 1143	 1094
 1143	 1095
 1143	 1096
 1144	 1088
 1144	 1089
 1144	 1090
 1144	 1091
 1144	 1092
 1144	 1093
 1144	 1094
 1144	 1095
 1144	 1096
 1144	 1097
 1145	 1090
 1145	 1091
 1145	 1092
 1145	 1093
 1145	 1094
 1145	 1095
 1145	 1096
 1145	 1097
 1145	 1098
 1146	 1094
 1146	 1095
 1146	 1096
 1146	 1097
 1146	 1098
 1147	 1095
 1147	 1096
 1147	 1097
 1147	 1098
 1148	 1094
 1148	 1095
 1148	 1096
 1148	 1097
 1148	 1098
 1149	 1094
 1149	 1095
 1149	 1096
 1149	 1097
 1149	 1098
 1149	 1099
 1150	 1095
 1150	 1096
 1150	 1097
 1150	 1098
 1150	 1099
 1151	 1094
 1151	 1095
 1151	 1096
 1151	 1097
 1151	 1098
 1151	 1099
 1151	 1100
 1151	 1101
 1151	 1102
 1151	 1103
 1152	 1095
 1152	 1096
 1152	 1097
 1152	 1098
 1152	 1099
 1152	 1100
 1152	 1101
 1152	 1102
 1152	 1103
 1152	 1104
 1152	 1105
 1152	 1106
 1152	 1107
 1153	 1097
 1153	 1098
 1153	 1099
 1153	 1100
 1153	 1101
 1153	 1102
 1153	 1103
 1153	 1104
 1153	 1105
 1153	 1106
 1153	 1107
 1153	 1108
 1153	 1109
 1153	 1110
 1153	 1111
 1153	 1112
 1154	 1100
 1154	 1101
 1154	 1102
 1154	 1103
 1154	 1104
 1154	 1105
 1154	 1106
 1154	 1107
 1154	 1108
 1154	 1109
 1154	 1110
 1154	 1111
 1154	 1112
 1154	 1113
 1154	 1114
 1154	 1115
 1155	 1104
 1155	 1105
 1155	 1106
 1155	 1107
 1155	 1108
 1155	 1109
 1155	 1110
 1155	 1111
 1155	 1112
 1155	 1113
 1155	 1114
 1155	 1115
 1156	 1108
 1156	 1109
 1156	 1110
 1156	 1111
 1156	 1112
 1156	 1113
 1156	 1114
 1156	 1115
 1157	 1109
 1157	 1110
 1157	 1111
 1157	 1112
 1157	 1113
 1157	 1114
 1157	 1115
 1158	 1107
 1158	 1108
 1158	 1109
 1158	 1110
 1158	 1111
 1158	 1112
 1158	 1113
 1158	 1114
 1158	 1115
 1159	 1108
 1159	 1109
 1159	 1110
 1159	 1111
 1159	 1112
 1159	 1113
 1159	 1114
 1159	 1115
 1159	 1116
 1160	 1109
 1160	 1110
 1160	 1111
 1160	 1112
 1160	 1113
 1160	 1114
 1160	 1115
 1160	 1116
 1161	 1107
 1161	 1108
 1161	 1109
 1161	 1110
 1161	 1111
 1161	 1112
 1161	 1113
 1161	 1114
 1161	 1115
 1162	 1107
 1162	 1108
 1162	 1109
 1162	 1110
 1162	 1111
 1162	 1112
 1162	 1113
 1162	 1114
 1163	 1107
 1163	 1108
 1163	 1109
 1163	 1110
 1163	 1111
 1163	 1112
 1164	 1107
 1164	 1108
 1164	 1109
 1164	 1110
 1164	 1111
 1164	 1112
 1164	 1113
 1164	 1114
 1165	 1107
 1165	 1108
 1165	 1109
 1165	 1110
 1165	 1111
 1165	 1112
 1165	 1113
 1165	 1114
 1166	 1109
 1166	 1110
 1166	 1111
 1166	 1112
 1166	 1113
 1166	 1114
 1166	 1115
 1167	 1111
 1167	 1112
 1167	 1113
 1167	 1114
 1167	 1115
 1167	 1116
 1167	 1117
 1168	 1112
 1168	 1113
 1168	 1114
 1168	 1115
 1168	 1116
 1168	 1117
 1168	 1118
 1169	 1113
 1169	 1114
 1169	 1115
 1169	 1116
 1169	 1117
 1169	 1118
 1170	 1115
 1170	 1116
 1170	 1117
 1170	 1118
 1171	 1115
 1171	 1116
 1171	 1117
 1171	 1118
 1171	 1119
 1172	 1112
 1172	 1113
 1172	 1114
 1172	 1115
 1172	 1116
 1172	 1117
 1172	 1118
 1172	 1119
 1172	 1120
 1173	 1106
 1173	 1107
 1173	 1108
 1173	 1109
 1173	 1110
 1173	 1111
 1173	 1112
 1173	 1113
 1173	 1114
 1173	 1115
 1173	 1116
 1173	 1117
 1173	 1118
 1173	 1119
 1173	 1120
 1173	 1121
 1174	 1098
 1174	 1099
 1174	 1100
 1174	 1101
 1174	 1102
 1174	 1103
 1174	 1104
 1174	 1105
 1174	 1106
 1174	 1107
 1174	 1108
 1174	 1109
 1174	 1110
 1174	 1111
 1174	 1112
 1174	 1113
 1174	 1114
 1174	 1115
 1174	 1116
 1174	 1117
 1174	 1118
 1174	 1119
 1175	 1094
 1175	 1095
 1175	 1096
 1175	 1097
 1175	 1098
 1175	 1099
 1175	 1100
 1175	 1101
 1175	 1102
 1175	 1103
 1175	 1104
 1175	 1105
 1175	 1106
 1175	 1107
 1175	 1108
 1175	 1109
 1175	 1110
 1175	 1111
 1175	 1112
 1175	 1113
 1175	 1114
 1175	 1115
 1176	 1093
 1176	 1094
 1176	 1095
 1176	 1096
 1176	 1097
 1176	 1098
 1176	 1099
 1176	 1100
 1176	 1101
 1176	 1102
 1176	 1103
 1176	 1104
 1176	 1105
 1176	 1106
 1176	 1107
 1176	 1108
 1176	 1109
 1176	 1110
 1176	 1111
 1177	 1093
 1177	 1094
 1177	 1095
 1177	 1096
 1177	 1097
 1177	 1098
 1177	 1099
 1177	 1100
 1177	 1101
 1177	 1102
 1177	 1103
 1177	 1104
 1178	 1093
 1178	 1094
 1178	 1095
 1178	 1096
 1178	 1097
 1179	 1092
 1179	 1093
 1179	 1094
 1179	 1095
 1179	 1096
 1179	 1097
 1180	 1089
 1180	 1090
 1180	 1091
 1180	 1092
 1180	 1093
 1180	 1094
 1180	 1095
 1180	 1096
 1180	 1097
 1181	 1087
 1181	 1088
 1181	 1089
 1181	 1090
 1181	 1091
 1181	 1092
 1181	 1093
 1181	 1094
 1181	 1095
 1182	 1086
 1182	 1087
 1182	 1088
 1182	 1089
 1182	 1090
 1182	 1091
 1182	 1092
 1182	 1093
 1182	 1094
 1183	 1082
 1183	 1083
 1183	 1084
 1183	 1085
 1183	 1086
 1183	 1087
 1183	 1088
 1183	 1089
 1183	 1090
 1183	 1091
 1183	 1092
 1184	 1078
 1184	 1079
 1184	 1080
 1184	 1081
 1184	 1082
 1184	 1083
 1184	 1084
 1184	 1085
 1184	 1086
 1184	 1087
 1184	 1088
 1184	 1089
 1184	 1090
 1185	 1075
 1185	 1076
 1185	 1077
 1185	 1078
 1185	 1079
 1185	 1080
 1185	 1081
 1185	 1082
 1185	 1083
 1185	 1084
 1185	 1085
 1185	 1086
 1185	 1087
 1185	 1088
 1186	 1073
 1186	 1074
 1186	 1075
 1186	 1076
 1186	 1077
 1186	 1078
 1186	 1079
 1186	 1080
 1186	 1081
 1186	 1082
 1186	 1083
 1186	 1084
 1186	 1085
 1187	 1072
 1187	 1073
 1187	 1074
 1187	 1075
 1187	 1076
 1187	 1077
 1187	 1078
 1187	 1079
 1187	 1080
 1187	 1081
 1188	 1072
 1188	 1073
 1188	 1074
 1188	 1075
 1188	 1076
 1188	 1077
 1188	 1078
 1189	 1072
 1189	 1073
 1189	 1074
 1189	 1075
 1189	 1076
 1190	 1072
 1190	 1073
 1190	 1074
 1190	 1075
 1190	 1076
 1190	 1077
 1191	 1073
 1191	 1074
 1191	 1075
 1191	 1076
 1191	 1077
 1192	 1074
 1192	 1075
 1192	 1076
 1192	 1077
 1193	 1075
 1193	 1076
 1193	 1077
 1193	 1078
 1193	 1079
 1193	 1080
 1194	 1075
 1194	 1076
 1194	 1077
 1194	 1078
 1194	 1079
 1194	 1080
 1194	 1081
 1195	 1075
 1195	 1076
 1195	 1077
 1195	 1078
 1195	 1079
 1195	 1080
 1195	 1081
 1195	 1082
 1195	 1083
 1195	 1084
 1196	 1077
 1196	 1078
 1196	 1079
 1196	 1080
 1196	 1081
